patient_id,label,signal_0,signal_1,signal_2,signal_3,signal_4,signal_5,signal_6,signal_7,signal_8,signal_9,signal_10,signal_11,signal_12,signal_13,signal_14,signal_15,signal_16,signal_17,signal_18,signal_19,signal_20,signal_21,signal_22,signal_23,signal_24,signal_25,signal_26,signal_27,signal_28,signal_29,signal_30,signal_31,signal_32,signal_33,signal_34,signal_35,signal_36,signal_37,signal_38,signal_39,signal_40,signal_41,signal_42,signal_43,signal_44,signal_45,signal_46,signal_47,signal_48,signal_49,signal_50,signal_51,signal_52,signal_53,signal_54,signal_55,signal_56,signal_57,signal_58,signal_59,signal_60,signal_61,signal_62,signal_63,signal_64,signal_65,signal_66,signal_67,signal_68,signal_69,signal_70,signal_71,signal_72,signal_73,signal_74,signal_75,signal_76,signal_77,signal_78,signal_79,signal_80,signal_81,signal_82,signal_83,signal_84,signal_85,signal_86,signal_87,signal_88,signal_89,signal_90,signal_91,signal_92,signal_93,signal_94,signal_95,signal_96,signal_97,signal_98,signal_99,signal_100,signal_101,signal_102,signal_103,signal_104,signal_105,signal_106,signal_107,signal_108,signal_109,signal_110,signal_111,signal_112,signal_113,signal_114,signal_115,signal_116,signal_117,signal_118,signal_119,signal_120,signal_121,signal_122,signal_123,signal_124,signal_125,signal_126,signal_127,signal_128,signal_129,signal_130,signal_131,signal_132,signal_133,signal_134,signal_135,signal_136,signal_137,signal_138,signal_139,signal_140,signal_141,signal_142,signal_143,signal_144,signal_145,signal_146,signal_147,signal_148,signal_149,signal_150,signal_151,signal_152,signal_153,signal_154,signal_155,signal_156,signal_157,signal_158,signal_159,signal_160,signal_161,signal_162,signal_163,signal_164,signal_165,signal_166,signal_167,signal_168,signal_169,signal_170,signal_171,signal_172,signal_173,signal_174,signal_175,signal_176,signal_177,signal_178,signal_179,signal_180,signal_181,signal_182,signal_183,signal_184,signal_185,signal_186,signal_187,signal_188,signal_189,signal_190,signal_191,signal_192,signal_193,signal_194,signal_195,signal_196,signal_197,signal_198,signal_199,signal_200,signal_201,signal_202,signal_203,signal_204,signal_205,signal_206,signal_207,signal_208,signal_209,signal_210,signal_211,signal_212,signal_213,signal_214,signal_215,signal_216,signal_217,signal_218,signal_219,signal_220,signal_221,signal_222,signal_223,signal_224,signal_225,signal_226,signal_227,signal_228,signal_229,signal_230,signal_231,signal_232,signal_233,signal_234,signal_235,signal_236,signal_237,signal_238,signal_239,signal_240,signal_241,signal_242,signal_243,signal_244,signal_245,signal_246,signal_247,signal_248,signal_249,signal_250,signal_251,signal_252,signal_253,signal_254,signal_255,signal_256,signal_257,signal_258,signal_259,signal_260,signal_261,signal_262,signal_263,signal_264,signal_265,signal_266,signal_267,signal_268,signal_269,signal_270,signal_271,signal_272,signal_273,signal_274,signal_275,signal_276,signal_277,signal_278,signal_279,mapped_label
208,F,-0.15154740095282043,-0.15846753253316703,-0.1670749431777988,-0.17126780851808637,-0.16950144010147328,-0.16457785038034461,-0.159819809810178,-0.15665987758334202,-0.1547626565224489,-0.1507560434927886,-0.14361905425472302,-0.13789915565011918,-0.1372395394969951,-0.14121520810308377,-0.14600373719769827,-0.14640321177890178,-0.14078514486008137,-0.13282851320817665,-0.12838398958541122,-0.13002653925897328,-0.13305101974369887,-0.13081612221444464,-0.12258530675684184,-0.11294748401222246,-0.10738712289481983,-0.10755392881542497,-0.1105509040639138,-0.11268566299168387,-0.11159073437156392,-0.10838118760500598,-0.10752687972636991,-0.11232858600872521,-0.11947423142731577,-0.12145828196640375,-0.11675775061188086,-0.11064405382686554,-0.10827460586992028,-0.11071005301743486,-0.11373870380817862,-0.11059339316129949,-0.09768324213464538,-0.07880436315875972,-0.060086542188878315,-0.04476610509729998,-0.03573320341429849,-0.032781140988521494,-0.029429084370830187,-0.020889622676964262,-0.00934829835761208,0.0003469076023715997,0.005916522632165613,0.009875967111186297,0.01548368202556245,0.023273914023481442,0.02946651228895665,0.028017883609085345,0.018931970352110583,0.008263442651046301,0.0008206960954857618,-0.005096292828030077,-0.015012640288054834,-0.031569078558625764,-0.05056839845342462,-0.06571298421945924,-0.07772022350348476,-0.09086562996230578,-0.107300046190989,-0.1257257137174228,-0.14137933960258872,-0.15132923944735188,-0.1571933147340015,-0.1623909616941139,-0.17081252590371715,-0.1818389879457123,-0.18985443546653236,-0.19188812807438707,-0.1872869853946163,-0.17921182219581608,-0.1751141840258251,-0.1775230051636782,-0.18201413302601516,-0.18378036503489462,-0.1808847577937484,-0.17474682523163562,-0.1702544139100246,-0.17056378157195987,-0.17154235985512514,-0.16555308007179467,-0.15052220246714076,-0.1313234577749842,-0.11054725597638954,-0.08450935965959681,-0.043368923400801916,0.03158656640438142,0.16054865294891582,0.349911031143059,0.587240792488894,0.8505817609812356,1.11930830897682,1.3820040080296008,1.6304784138767852,1.8432561654385637,1.9847474132888951,2.016433031367658,1.9097700577619057,1.6689627123743098,1.3393020553493789,0.9815029995692114,0.6481304883393357,0.37472228983511036,0.17359575485292128,0.03651978673631441,-0.04963646735909058,-0.09513403763788883,-0.11543140459394319,-0.12927218333951987,-0.14729793647729983,-0.16835838431916197,-0.18664595909386744,-0.20019154134682954,-0.21132431089095097,-0.22247285454672272,-0.23103955111541286,-0.23338672823292944,-0.23101998161186,-0.22775220508621705,-0.22767805625342463,-0.23236507034817117,-0.2380665714155109,-0.2398093174732226,-0.23552118594718632,-0.22842118407826728,-0.2255318864275267,-0.22913362760320222,-0.23453837024305343,-0.23645206116765322,-0.23385502370669314,-0.22919962765829838,-0.22531440409560394,-0.2246143866420013,-0.22597593335344157,-0.2248578477007161,-0.2197793989409106,-0.2131656168959464,-0.20923513293723814,-0.21028395687382573,-0.21346666204564746,-0.21358313767683573,-0.2090381076589513,-0.20460639214962129,-0.204133804893689,-0.2065274867787311,-0.20891647086021903,-0.20740809696587403,-0.19905079008192475,-0.18554254270017656,-0.17155205887304703,-0.16236212820949747,-0.1599859893118011,-0.15872129903058438,-0.15373011807405695,-0.1472836391667967,-0.1435137538115825,-0.144628577846319,-0.1476244776582361,-0.14694835223425537,-0.14017945557598227,-0.1281351255207436,-0.1165193115564834,-0.1113650755374836,-0.11071566756167339,-0.1061006547399396,-0.09396346004393893,-0.08090422597287994,-0.07279182197795903,-0.06933107599515761,-0.06885646188903699,-0.06601691616383616,-0.05359650579170764,-0.03492905686879136,-0.020491271877369894,-0.015039551233994905,-0.015322418794031695,-0.014558389742779634,-0.007151556159357914,0.00566003288910376,0.015834977760919796,0.018282598230219396,0.01590302709153449,0.014833117762475034,0.016208598433822354,0.016052570400814682,0.010187317334222297,-0.0030219392593920803,-0.02093756219299928,-0.03758880429681526,-0.04902412287517442,-0.058241981898570994,-0.06950847741083167,-0.08266730579797674,-0.09603133085617277,-0.10605952007222656,-0.10959567265184109,-0.10942535537729006,-0.11043668975792162,-0.11542535380967045,-0.12327364225554541,-0.12907590226686058,-0.13032941937611447,-0.12898541437132033,-0.1279586482503383,-0.13141047622803126,-0.1409872143096295,-0.14907448848968302,-0.14888746099492234,-0.14320361050053917,-0.1375021485011759,-0.13422423390276114,-0.13268370253380654,-0.13053760646397417,-0.12596336329680213,-0.1202453305764074,-0.11677537432253027,-0.11568106852743704,-0.11392627848498128,-0.11096325190737352,-0.10629163512987289,-0.10107517545721834,-0.10106772872942738,-0.10606411484893277,-0.1097386968834298,-0.10873962173325355,-0.10407190716180954,-0.09887294154190564,-0.09585565291770595,-0.09642793589234949,-0.09878523294718244,-0.09950603938086212,-0.09689043604012282,-0.09263790712337312,-0.09016929869416981,-0.09128788631662932,-0.0945829801688368,-0.09532510306977666,-0.08878052337155451,-0.0745276805708998,-0.059141180777720355,-0.04729400653946425,-0.035384053683612644,-0.01674162974087978,0.013566247491440593,0.05356988819167606,0.09586066109781465,0.13884626088996627,0.1895156692267608,0.2528536260199878,0.32872354423759154,0.4147713318160781,0.5055736914422458,0.5943965483596492,0.6809575138419344,0.7742134065799258,0.8813099948973433,0.9961115925239762,1.105423112875921,1.2037289208401325,1.2938720804713533,1.3802392091697973,1.4641652824595637,1.539953096842399,1.5994315805463124,1.6375835870788658,1.651610275395574,1.64174203163514,1.6094086832173198,1.5573599241836675,1.4908255244339683,1.416607601783825,1.3434108134851002,1.279649492739995,F
208,F,-0.1366669006421311,-0.14583852075254394,-0.14880065325616226,-0.1451810007705392,-0.14248591285819298,-0.14592480111768621,-0.15245790713996557,-0.15745033938465688,-0.15806081692484747,-0.15402127639807286,-0.14843102046499745,-0.14416480424343253,-0.14311960090218648,-0.14469203393282556,-0.14630882821034738,-0.14642763940759848,-0.1453337044595107,-0.14536423862033207,-0.1477218607111891,-0.14940040701178833,-0.14685022523096644,-0.14122609244516998,-0.137285712182599,-0.13708229323057056,-0.13856487679501883,-0.13899019897474968,-0.1357796301806845,-0.1285107836154189,-0.12059557198500503,-0.11492935548488292,-0.1101388229556153,-0.10352224166831295,-0.09394962324146441,-0.08298430190052158,-0.07410329499206576,-0.06839790194566553,-0.06442773770182428,-0.058092975403645025,-0.043429458079991524,-0.02299311534970768,-0.005851386712783696,0.0033733154163753695,0.004886263160272476,0.002876249823283386,0.0027804641535002866,0.00551141459573344,0.006164672836848056,0.00021104314334690353,-0.011021011742342844,-0.02231509706795958,-0.030513090317235394,-0.03806032569178092,-0.04889841846979499,-0.06453021929576964,-0.0841963940238144,-0.10528213515222529,-0.12326894431527148,-0.1342089556945762,-0.14066362755105893,-0.14869283354281465,-0.15955590204625422,-0.17070186553874495,-0.178787258997418,-0.1820704189505054,-0.18406615947803587,-0.18827013567578352,-0.19387329485243562,-0.19914542812125816,-0.20107869266926143,-0.19704124212388519,-0.1907471941212831,-0.19015349023162595,-0.1966338924612968,-0.20505472017259374,-0.2107915053668888,-0.21212073871483833,-0.21087373437375279,-0.2108620563726296,-0.2148457878605541,-0.21866433108837266,-0.21600353197662978,-0.20749902835676792,-0.19721617116857498,-0.18780824910793978,-0.1785842332501689,-0.16597079235685253,-0.14572702328225512,-0.11563927460468207,-0.07679610699983666,-0.02540085707655875,0.05322812313017974,0.1750980629364864,0.3450032205937058,0.5562687277153897,0.7945343640901659,1.0425250089986882,1.2885566447654506,1.5233591586416693,1.7287475573057218,1.8743564810481266,1.922885339450163,1.8459723136435684,1.6471068312160275,1.3653846946483499,1.0520040359029919,0.7502572394016215,0.48940675859714317,0.2795833975745072,0.11575251388900645,-0.009147400233429973,-0.096683929927009,-0.14616635264727407,-0.16515263279442524,-0.17137208445442376,-0.1795352049413551,-0.19380995404937887,-0.21110030300583282,-0.22564516370952087,-0.23554076756154685,-0.24425724415116162,-0.2543223363505948,-0.26227394546666394,-0.2629713255373015,-0.2576111682574844,-0.2536639526012649,-0.25668040862386243,-0.26360280908011463,-0.2683998159348082,-0.2683768938886664,-0.2630612184330801,-0.25684493248762846,-0.2554053488599747,-0.25811089008413457,-0.2615446180912952,-0.26184125770499334,-0.25667145428542887,-0.25044474285487794,-0.24973834416295948,-0.25540600969848365,-0.2622446577203904,-0.2639463191103478,-0.2591909221316096,-0.2536228862893226,-0.2532361728085291,-0.25702930077553915,-0.2592327166112834,-0.255825357032893,-0.24840658077592356,-0.24143432474818924,-0.23869720013938273,-0.24127014222473095,-0.24433994486711408,-0.2434692069707428,-0.24015082484223654,-0.23594699200656616,-0.23170827112960168,-0.22924810037569576,-0.22673926396907573,-0.22129684102513175,-0.21273918928200536,-0.20344538205572743,-0.196207111462526,-0.19039509699769586,-0.18347462464674963,-0.17303209518148188,-0.15889692643441508,-0.14501816461694433,-0.13654172102570097,-0.13280380171399866,-0.1268092109551743,-0.11279429595966133,-0.09174368417136647,-0.07015563556709131,-0.052089694003754315,-0.0373364020497034,-0.02426888492640425,-0.009568942017426474,0.008352183228048217,0.025577405716301155,0.037641630310225216,0.0460686512722181,0.05454381174598377,0.0647772860131936,0.0778489950375389,0.09103725211828882,0.09869195290679696,0.09984960522390612,0.09747484198207056,0.09375715365401888,0.08881833441829336,0.08181361399123108,0.07127244045806552,0.056957231381081136,0.04168728015671837,0.0275271934141098,0.015401973964780706,0.0038154736875428454,-0.011320832735145947,-0.030857967701612785,-0.05106786862769113,-0.06673966785268773,-0.07712968369957818,-0.0863804436766143,-0.09773336434530638,-0.11205797212973177,-0.12652511555770274,-0.13640061130490092,-0.1403655361963312,-0.14148813328404294,-0.14461204227827446,-0.15112114512889635,-0.1580179519309855,-0.1615954591948263,-0.16155586832120594,-0.16178115488225922,-0.16534649691023073,-0.17191419518029966,-0.17746777206611142,-0.178187237974165,-0.17447900425971746,-0.17029049412048733,-0.17018545028165225,-0.1738889093691176,-0.1780810468353397,-0.17981562033469856,-0.1772170504189367,-0.17303013801449063,-0.17275932386394394,-0.17693849777749762,-0.17954088244130914,-0.17730844706069004,-0.17321903460828342,-0.16978353875200153,-0.16800631481698192,-0.16817555124309394,-0.16707486678005215,-0.16148335686676787,-0.15167216081243606,-0.14061304481406342,-0.13129159276064684,-0.12202118555801822,-0.11014207090212168,-0.09294467632776492,-0.06754881023415489,-0.03667944529966737,-0.003776563802645752,0.03233721529382505,0.07436053892350099,0.1256189275391995,0.18765303308029374,0.2584122698410473,0.33566307784875654,0.41522728835472544,0.49372068198929453,0.5769414269278764,0.6713607209990484,0.7721223101742032,0.8682617433004108,0.9541756092812346,1.0332477930920554,1.1104555049517217,1.188239414689237,1.2664088109692329,1.3409816178208076,1.4100924079211739,1.4695049101262432,1.5082698046993164,1.5202084509915088,1.5060851013425465,1.469182013908373,1.419892747678493,1.3718404345328752,1.3314919067963842,1.3002331139358387,1.2754620143303939,1.2545739067925803,1.2369341036341606,1.2223748290190377,1.2150846485812057,1.2168538491520975,F
208,F,0.06352131981478303,0.04178453589606166,0.022079010869819553,0.005804462261431388,-0.007966921644724062,-0.024224481506588607,-0.04488760839338847,-0.06428428875866679,-0.07674843011972726,-0.08120668373901517,-0.07932814911647722,-0.07583214583894987,-0.07617068096681555,-0.08076712424014339,-0.08635434479402336,-0.09043963455215259,-0.09135343057568905,-0.09095588474728267,-0.09509516397093963,-0.10514236198163444,-0.1160546807090101,-0.12245828236799902,-0.123465568364022,-0.12197647823345005,-0.12193449561365843,-0.1264037979241609,-0.12992913804134995,-0.12529963932469113,-0.11697208435846884,-0.1145266879797427,-0.12010305845173351,-0.12706840419037563,-0.1278650101784436,-0.12112996238277039,-0.11162793257140781,-0.10294422856462684,-0.0982958978642653,-0.10004797845436257,-0.10353379484969767,-0.10242915580510835,-0.0938275061776021,-0.08097872234820637,-0.07182610519645066,-0.06817005502315804,-0.06607999298008746,-0.06084292626198479,-0.04928620640352736,-0.03431739985467038,-0.02118199992084365,-0.011540348938696637,-0.0017594606635517127,0.010898834944952532,0.021385759368347614,0.02193848914926766,0.013058615714120148,0.0029016477240753407,-0.0023875318198990606,-0.0008752269052166271,0.003667458712150443,0.0028180066572805283,-0.008047846647900328,-0.027363623325426256,-0.050159349760622945,-0.06917572137582458,-0.08121252526298925,-0.09164530806210248,-0.10759784579744307,-0.13047993842655395,-0.15307522353835287,-0.16692845764209657,-0.17277847098210614,-0.17812332061459035,-0.19005282974511153,-0.2067549086325323,-0.22010950353177194,-0.22739070412748746,-0.22912135252623078,-0.2284788433286307,-0.2307795269376307,-0.23459524062919634,-0.23565498683597144,-0.23152521336151774,-0.22170535861036725,-0.2112546236470797,-0.2067321709405247,-0.20728694640966702,-0.20298333223618936,-0.1840708251189856,-0.14939457339855633,-0.10548800334528186,-0.05864898909810762,-0.009846524438819095,0.04350893092741763,0.10758950806954772,0.1909719121865669,0.30133016541249225,0.4464423752522253,0.6312573822735973,0.8527333646113417,1.1004484264052912,1.3594434080889606,1.6115036138690486,1.8328735251372512,1.9976636170346382,2.0775700472063967,2.0356781463706204,1.846664466340013,1.5291408491177139,1.1452325429377495,0.7690674526874239,0.4576768327091697,0.23558220974058325,0.09098983864793267,-0.005331656763073867,-0.07580067678328994,-0.1285268481286437,-0.1606714636070118,-0.1732972506908,-0.1802430820574963,-0.19488871999406382,-0.2175638002407001,-0.2408316511630465,-0.2617286648977689,-0.27943128250430216,-0.2915915278600168,-0.29952423805570516,-0.3072305644575476,-0.3175097417211589,-0.32913544721041005,-0.33790053346019344,-0.34134705271713695,-0.3428624481721732,-0.3473087808545049,-0.354796963089969,-0.3627838987991576,-0.3680916055161508,-0.36842682096952306,-0.36660697358412164,-0.36875639667091276,-0.3740484373000429,-0.37606512943137704,-0.3728238581623543,-0.36622253089573087,-0.35951260033445553,-0.3568422526490749,-0.3584796888558677,-0.35800905316377984,-0.34934374550770897,-0.3329938211649306,-0.3144576482480199,-0.30151310097602213,-0.2972717648244369,-0.29659724317898345,-0.294125426626317,-0.2890901501556268,-0.28472058266585076,-0.2857566255210032,-0.2921274073925797,-0.29889546285193525,-0.3014176026003116,-0.2977220342601807,-0.29198233698517617,-0.2917706920554143,-0.2969291421986913,-0.30045041524608807,-0.29603081152903515,-0.2841665550265147,-0.272544464137874,-0.26500378253626333,-0.26053703405597245,-0.25651820312410706,-0.24965228906939907,-0.24041884233784402,-0.23143951037382623,-0.2245157433207683,-0.21903137023115932,-0.21046319170419067,-0.1958685071527722,-0.17760102048144916,-0.1601380818496706,-0.14757381546075277,-0.1398056214659004,-0.1324542433987689,-0.12145960236296319,-0.10591755143371559,-0.08937940401760772,-0.0786265104985722,-0.07594034310535225,-0.076877750718974,-0.07582128752175966,-0.06960038183946798,-0.061027498954723314,-0.0570908606928158,-0.060381703937357915,-0.06610773014046,-0.06937853566800752,-0.07040354728690733,-0.0736514997775355,-0.08131525845574583,-0.09101648857692,-0.0999645494025173,-0.10577564680307551,-0.10861719161183547,-0.1113391433174842,-0.11769566066461945,-0.1292679601993907,-0.1406774284151326,-0.145404182337539,-0.14372300971467936,-0.13889893653389407,-0.13573570580998318,-0.13832484765281425,-0.1432140054650053,-0.14473134238054886,-0.14258399251937157,-0.14162755967707766,-0.14563549976778423,-0.15323231093486706,-0.16083145478346758,-0.16383356410640293,-0.16004306801706292,-0.15196100308425187,-0.14573765072179512,-0.14696593285617793,-0.15302095935865248,-0.15602027190628553,-0.15270338048114454,-0.14588677072344267,-0.13863928417483826,-0.13267657404744912,-0.12870623441070253,-0.12497469836937261,-0.11990822314032787,-0.11489533323881856,-0.11336937109370096,-0.11747944350623894,-0.1247558833326957,-0.1311924317029173,-0.13512949953011963,-0.13795827654204604,-0.1411946552525111,-0.14264625152619925,-0.13971278833665626,-0.13236568952919756,-0.12212070140914155,-0.1112206752117788,-0.10239056616867978,-0.09796667911599541,-0.09771494150614095,-0.09864702817408554,-0.09970493279996376,-0.10193362433472138,-0.10528276873404628,-0.10856699025717961,-0.10953817135899094,-0.10512674581688325,-0.09304703843297123,-0.07602981239357785,-0.059951077790883385,-0.04840518846376273,-0.0405082332527124,-0.03120843876099234,-0.016358002431858962,0.0015038055463219638,0.014167233571714205,0.019383515522332632,0.022110147172241114,0.025344729081535865,0.031478018548469835,0.041159367595124396,0.048781803347500305,0.04812104969667391,0.04050426717178548,0.033844051105339966,0.03278270250647274,0.03329916119408532,0.029596384638997275,0.018586329153818637,0.0014810451474494626,-0.016258157854124163,F
208,F,0.003988158220823518,-0.004538238181557908,-0.008490721785188365,-0.013015557363992972,-0.020693524695701418,-0.0315598524196081,-0.043131453253450844,-0.05046288513150997,-0.053310781015645375,-0.05694700633734524,-0.06525013442014359,-0.07772612853915042,-0.088114068871571,-0.09252576009279481,-0.09342168242630919,-0.09451088848427473,-0.09864356983046509,-0.10502791959818908,-0.10760185553981683,-0.10232435996913038,-0.09404693006594861,-0.08826976496971313,-0.08843389468437621,-0.09460838270967853,-0.099524329462475,-0.09994218660779475,-0.09912820015197163,-0.09736307647623738,-0.0941730337366432,-0.09197749446437874,-0.09296731685428765,-0.09580314540474408,-0.09556671785654669,-0.0909472245510786,-0.08723039042548109,-0.08739116084550837,-0.08840393222640691,-0.0879079299641373,-0.08637017325186037,-0.08343260351957901,-0.08064572563698759,-0.0806784602011167,-0.07936723644160089,-0.07048102493647522,-0.05187516287743332,-0.027824959672542948,-0.00937513484058862,8.630799177007653e-05,0.008191963625905435,0.019497622514754634,0.033035460397878746,0.047582395670454164,0.05969192736507649,0.06600716000988727,0.06966479692398993,0.07371676275514522,0.07649545462554946,0.07532693610133671,0.0694524978784567,0.06144199172919286,0.05318549673770126,0.046375722296898424,0.0418300696474249,0.03309857083303751,0.013450750884369006,-0.014342691025293605,-0.03984918087057096,-0.054856354144702954,-0.06098066832018485,-0.06390261887934881,-0.06979473187051924,-0.0831419321831651,-0.09820863858151017,-0.10357129585263394,-0.0962470212264492,-0.0833668658981697,-0.07170520329342124,-0.06295933665165651,-0.05609062814367895,-0.04851807853739344,-0.036098367285088334,-0.015897132043801013,0.01008832480670141,0.040391995880588616,0.07694451201938515,0.12156473158735563,0.1743731644857458,0.2308687496852651,0.2874301535213739,0.34750894539417904,0.4173059526378491,0.502605239260546,0.6092999172502733,0.7429976994662874,0.9084005822750996,1.1119906054935238,1.360083562176733,1.6477038072155417,1.9506339299565596,2.2214204011614402,2.398255193068217,2.429703457886105,2.290511612825386,1.9898798634881805,1.576698828093812,1.128783134367583,0.7256693189321397,0.4187502561070202,0.21645328375919984,0.09289960026861886,0.016806212322116827,-0.0298991636092379,-0.060260870873129875,-0.08652428831282204,-0.11268137692589181,-0.13660455302634966,-0.15641185938975843,-0.17401027736649818,-0.19357952722456767,-0.2138033975115247,-0.22783809807265937,-0.23199790157556738,-0.22888507398094624,-0.22441149457187284,-0.22440926284799947,-0.22916846504430977,-0.2326603136871505,-0.22985478318219904,-0.2228139203978584,-0.2182939738685404,-0.22100021644012482,-0.22824328638168617,-0.23284861705686222,-0.2305775783428322,-0.22282301157751588,-0.21569500150998897,-0.21377246723363044,-0.2186805807637221,-0.2263491384082729,-0.22582026227530969,-0.215754032105741,-0.20538452304899396,-0.20168355706280455,-0.20479549217695314,-0.20714594461639063,-0.20356388090086763,-0.1972640646653031,-0.1933307106207809,-0.19568222229105336,-0.20311860296379713,-0.20837723505823827,-0.2074948974478582,-0.20271993210004718,-0.1982506566355398,-0.19750812493130657,-0.19979737180534557,-0.19976070941651716,-0.19321333130513024,-0.18289672285489877,-0.17561047911118693,-0.17349127398781936,-0.17267906122104168,-0.1693261137112246,-0.16159535232809835,-0.15123051062007434,-0.14392338587364525,-0.14374159412121884,-0.14828850191597912,-0.15184313479223024,-0.1539250720582741,-0.15791118288270628,-0.16565153947144975,-0.17691451496370011,-0.18719391116255113,-0.19019357321981586,-0.18292417367494065,-0.16837663169994563,-0.15385529331269437,-0.14265426799886993,-0.13061943112192412,-0.11192667096914771,-0.08656159930080098,-0.062319561142562575,-0.04686893169331581,-0.03971445200619819,-0.028793319723213737,0.0009230904858953601,0.0480945310575613,0.09295052964634105,0.1128908977449176,0.09887540167154868,0.062381413545222794,0.029358179796722138,0.019435870792008987,0.0292087273640323,0.0386019895381776,0.030255672634203028,0.005013681631370198,-0.02243714216000455,-0.03814294613184425,-0.03800483657822823,-0.028573493892595364,-0.021146916997677873,-0.021562966197837728,-0.02474184659020956,-0.022750616332746047,-0.01564826628767889,-0.011532254450212463,-0.014818021347408852,-0.02066728607087568,-0.025252541718072744,-0.03078611588330147,-0.03921974733270414,-0.05277465142222924,-0.07367832932072674,-0.09586536086637762,-0.10623472939392874,-0.0964532332044805,-0.06946489834914124,-0.03778742372949884,-0.015270476917213241,-0.004876782315114951,0.0020008464910184556,0.01321386638806163,0.02796342993051032,0.0411966074913416,0.049680974444654136,0.0524759781737361,0.050192446346846706,0.04547296863017517,0.04306088407265743,0.044486582525806215,0.04625641881227373,0.047154869286355525,0.048293212238235655,0.049963427155356774,0.05287291274486479,0.053675513530085484,0.04635913722516559,0.03158693271824847,0.01621438671326278,0.006622703585491663,0.002684170753780357,-0.0013326365844600827,-0.008205651537389703,-0.012908986803382073,-0.0066991291761456725,0.011672696903075382,0.032922269650160325,0.0470134067143167,0.05033707161533027,0.04990671585014571,0.05781988277386124,0.07665381236645953,0.1004874584656956,0.1233080875551341,0.1423200308331842,0.1567489002166021,0.1652210044931763,0.16870204327073773,0.16924616173805213,0.16558130986391634,0.15411860861543758,0.1341697412375224,0.10941631098261638,0.08477703600069413,0.06324344011866653,0.04421459514434356,0.02403077952786703,0.0011360966328183147,-0.021124012976450855,-0.03890494187455031,-0.04986225587470628,-0.057336625911742774,-0.06795594835869473,-0.08177304082607853,-0.09130145102439981,-0.08869081717656131,-0.07261619810876285,-0.04924602572624746,F
208,F,-0.09645567682812387,-0.11078664088941903,-0.12002265975141979,-0.1230058817801944,-0.12269740643541303,-0.12448636317245451,-0.13037891958038295,-0.13555108115088405,-0.13560902273388056,-0.13217773191661134,-0.1311641915936374,-0.13433875383191346,-0.13871783223295658,-0.14125198722956503,-0.13944180672654544,-0.13339170547285892,-0.12689726466871543,-0.12540630761071914,-0.13025447094085557,-0.13670084298755977,-0.13823848382601311,-0.13353577840731382,-0.12739887904382086,-0.12550742286627728,-0.12983753579841564,-0.1341861476703699,-0.1323566213593982,-0.1263494418455384,-0.1219056914549511,-0.1219682261828909,-0.12497686642925963,-0.12766127345119205,-0.12548312768206482,-0.11911632975841262,-0.11497731468006094,-0.11519725026691979,-0.11728878962330182,-0.11821966763203746,-0.11403715616318809,-0.10379383670964051,-0.09181773979045967,-0.08106717596475597,-0.0724436364072891,-0.06449661539575317,-0.05529823361060482,-0.044947335096822194,-0.03263258567312657,-0.021020220096572926,-0.01332701866366406,-0.005800969828928283,0.006184347663522997,0.020713157235480405,0.030834776206865623,0.032160437783568724,0.026445444111732018,0.017944631623093357,0.00972457532030753,0.005071607215659597,0.004047305857782332,-0.0014881677626321713,-0.015183339592378591,-0.031024840262882783,-0.044686932318669534,-0.05615781244140597,-0.06872439077270535,-0.08653208387466817,-0.10779455120931178,-0.12640245394466443,-0.13716652584976263,-0.1387694185599116,-0.13674895135390724,-0.13780397850912954,-0.14099358383365537,-0.13800184773312846,-0.12066638556361574,-0.08862806316354434,-0.049049539429570674,-0.008181227365023115,0.035779804270710355,0.089080294374767,0.15526157567900845,0.23191183325071452,0.31278483841212196,0.3929318600679177,0.4678185312172507,0.5357829940725987,0.6007441033801897,0.6662345352229337,0.7351607462533964,0.8110803944569607,0.8939613837558311,0.9811569448622999,1.0703435592172563,1.1596976836740223,1.245450455882692,1.321932268635003,1.3881628375198714,1.4510955187810997,1.5180175396462912,1.5882080211177225,1.6573920559569453,1.7234188418273775,1.7875804937171251,1.85260921961939,1.9157770964372551,1.9667458635263633,1.9844549516578827,1.933615353140559,1.7851894367222592,1.5488287571112358,1.2674104648946958,0.982439384427543,0.7164647023648444,0.47676679310665115,0.2671320248590655,0.09285676166413037,-0.043113357270658965,-0.141875415169877,-0.20942382192227021,-0.25733979922148864,-0.2958171691284154,-0.32861310194046434,-0.3549965085220783,-0.3721860597417014,-0.3832111825530854,-0.3962790858292367,-0.413139486308588,-0.4264400254812042,-0.4300221757608801,-0.4271413515670973,-0.4259922567247262,-0.43007480237728496,-0.4369273437238283,-0.44322533570226175,-0.44618570531153134,-0.44539725099772287,-0.4445071131754399,-0.44805965778643175,-0.45602600007859356,-0.46478613807145563,-0.4703109706835745,-0.47202749578949116,-0.47337274680265695,-0.476457061730606,-0.48271918534987923,-0.4910427396640479,-0.4968775440464418,-0.49871013211611803,-0.5008930178631659,-0.5080231134270616,-0.5195124003513676,-0.5321401122907494,-0.5405333830103197,-0.5419851823501857,-0.5423647304056896,-0.5466637766881934,-0.5538780146218667,-0.5602370150771235,-0.5622679459688518,-0.5610985540659323,-0.5603290298325847,-0.5628339778724245,-0.5679986022735546,-0.5702297913136981,-0.5666164869276559,-0.5606698090690528,-0.5560398640676247,-0.5533572841812187,-0.5517347347279276,-0.5480689889454418,-0.5386199481563848,-0.5251141442167548,-0.5120833244681782,-0.5023899172870478,-0.4964645652260851,-0.48963029026469873,-0.47746906638473,-0.4603870941722621,-0.441924971347208,-0.4265188552072958,-0.414951034601016,-0.40396126353365713,-0.3887079517573683,-0.3680055487011428,-0.345402949462502,-0.32293109083772603,-0.3006920038168259,-0.2779455700903602,-0.252528639615553,-0.2241800387979021,-0.19735192753388542,-0.1766735792553483,-0.1615493262664606,-0.1466963035050363,-0.1290450871981621,-0.11135629667539824,-0.098363079760564,-0.09346036793158456,-0.09434102269075131,-0.09419628734046828,-0.09043020019584735,-0.08462744271204305,-0.0787748908537642,-0.07783019335546879,-0.0825665875691368,-0.0861609670163582,-0.08591200452732949,-0.08412995246858777,-0.08492880262627753,-0.09143251794470736,-0.10019205700911266,-0.10550706364100568,-0.10599655891727483,-0.10351215103092673,-0.10157948012628219,-0.10415178033227974,-0.1116845678681885,-0.11948368816608562,-0.12104737308223001,-0.11501157821519693,-0.10709199077607141,-0.10453030876139191,-0.10872595610972033,-0.11432705156039959,-0.11607554183319094,-0.11371590387881807,-0.11179400784111203,-0.11418791614627324,-0.11911835092972903,-0.12176905347004921,-0.11954310147217227,-0.11504506710102401,-0.11410993092730726,-0.11933803643897159,-0.1271155162638174,-0.1318063880018742,-0.1313688722952726,-0.12775893044383985,-0.12444878478987947,-0.12614360591581544,-0.133437697635766,-0.13926162705639067,-0.13739115484924844,-0.12860595622244003,-0.11828789139233574,-0.11160990512702273,-0.1085606620863053,-0.10393604663957424,-0.09430100084556665,-0.07930767079703309,-0.05941218176925399,-0.03623442346346556,-0.01182355005627126,0.015758919819261977,0.05295755782471786,0.10172031715403457,0.15700839876509884,0.21187474801805234,0.26707134200701665,0.3296272006763331,0.4012885135276237,0.47988850697100527,0.5606535367417174,0.6364629228220582,0.7053078866908576,0.7717216837803315,0.8402909445721028,0.9142345603193611,0.9919013121462574,1.0644611024926085,1.129054797009605,1.192570800204782,1.259973968012404,1.3281568353017914,1.385500824086047,1.4188125763915924,1.4270626794887646,1.4195686322611956,1.403223082983848,1.381886471070122,F
205,F,-0.04848368301355484,-0.049963015811619695,-0.053545481778351264,-0.059130183609779355,-0.06617793396455449,-0.07127655092500754,-0.07349659220487162,-0.07365981601677424,-0.07096522350981452,-0.06637919928697561,-0.06239088365018351,-0.06095042043217575,-0.06299328301213498,-0.0671661691688228,-0.07077235001536569,-0.07368029213880574,-0.07721487059323444,-0.08117918548630702,-0.0847045139968722,-0.08657169218113842,-0.08525682164835177,-0.07974241633866012,-0.07173223831703028,-0.0659869634417358,-0.06502432798955096,-0.06607486614494817,-0.06694378933008767,-0.06930961502779484,-0.07401417172376878,-0.07870950227668284,-0.08103576187991046,-0.08178976421594064,-0.08153139263737713,-0.07800878961918929,-0.0714223299114813,-0.06458248171031385,-0.058085737452195835,-0.05178940033778967,-0.04670988712186368,-0.04381260726635239,-0.042761637014110385,-0.042660699422094946,-0.04235318218848298,-0.040517282392242594,-0.036636283879540876,-0.03159723608937243,-0.025373824814306035,-0.013990744699155748,0.002547522196254246,0.017237227789814676,0.02564046645866045,0.028423303225822732,0.02584878062651009,0.017983688142374513,0.007766509007295981,-0.002710775578327827,-0.01256638312132037,-0.019424189367442668,-0.022569144176990782,-0.02439445144833555,-0.02725877719891339,-0.03132144835388791,-0.035672701051512684,-0.041638008561391056,-0.05080535839617395,-0.06225387617288651,-0.0748440131176317,-0.08833047300361693,-0.10015320229046976,-0.10643771587609445,-0.10799190497778571,-0.10792599593862136,-0.10907396095652756,-0.1122027728468532,-0.1156106536967867,-0.11981852020584788,-0.12395927075072222,-0.12509534724159338,-0.12394805200809407,-0.1224497065261792,-0.12023853787205266,-0.11638431510386299,-0.11066680718147699,-0.10239768147203289,-0.0928945698200023,-0.08651820639558214,-0.08606310168439173,-0.08993106605450407,-0.09288405462324503,-0.08895855879024334,-0.06878391002815616,-0.01824081919335623,0.0735489086297015,0.2077012141003458,0.3754369066447691,0.5622223020899021,0.7514008470459212,0.9261534266793532,1.0713306308236303,1.1715741284977301,1.2092755279048508,1.1688084974685917,1.0483546259838463,0.8705363166872151,0.6771052032827233,0.5085312907257912,0.38459493688691,0.3018677563393935,0.2430841197648333,0.18969502166550928,0.1334107798430645,0.07571311289130458,0.022993892141841308,-0.018463373581408822,-0.04758761663098925,-0.0666698962695775,-0.07813862162737023,-0.08445870049361841,-0.08906495905086625,-0.09403862699459284,-0.09973425520195378,-0.10505834051046496,-0.10861883793715169,-0.11164998461759942,-0.11496276799815389,-0.1175726041814168,-0.11893976940801754,-0.11854461988736509,-0.11547868686691543,-0.11074522210190817,-0.10503343750050936,-0.09825594478153002,-0.09350068237097948,-0.09343023249428167,-0.09835653157845595,-0.10648628444122074,-0.11351489700514264,-0.11627497514376753,-0.11426432136607065,-0.10925066829601981,-0.10264221227965681,-0.09559071728058133,-0.09090313576682055,-0.08921988282377391,-0.08851388301192563,-0.0875213151510078,-0.08776261077339823,-0.09071836483789684,-0.09497382863977073,-0.09912602017418275,-0.10268985010275924,-0.10571622766309124,-0.10782680943915576,-0.10691107575448852,-0.10249119007818686,-0.09735628823181507,-0.0937265710171935,-0.09198508373438488,-0.09298945680009216,-0.09774165818712247,-0.10415588834170647,-0.10943764227360142,-0.11291018794408186,-0.11347167011837424,-0.11174327096177628,-0.10955279747966257,-0.10735245979641625,-0.10557985564541608,-0.10600745946783782,-0.11012195182364572,-0.11627348837481882,-0.12239778096012188,-0.12740691566272322,-0.13133815528445825,-0.1353829418204986,-0.1398087533998665,-0.14316420424473242,-0.14415215943868434,-0.14362427043899959,-0.1432407728147907,-0.14476651626871867,-0.14844420855553553,-0.152180185394179,-0.15391735234467682,-0.15403689363516365,-0.15465297246319995,-0.15625059857558948,-0.1570620813504387,-0.15469147490480312,-0.14824988519617716,-0.13866137873585027,-0.12738021610853045,-0.11452032179949725,-0.09995069775570414,-0.08620840807414615,-0.07647515434623661,-0.07105079466631549,-0.06758985978803174,-0.06428204189617093,-0.05943326754554634,-0.05113820610321257,-0.039801912662808615,-0.027453935735658592,-0.01532541257012213,-0.004818414205736621,0.0013902444361213904,0.0032728974442722872,0.001418713670165028,-0.004513064464560017,-0.012040768601020787,-0.017927850844347858,-0.020661524042312623,-0.02127239868625672,-0.021129883764415373,-0.02000426336697399,-0.017896141498532227,-0.016042067830285316,-0.015877340099072372,-0.01815515170675666,-0.02454424212111413,-0.03492128136520655,-0.04526328268280316,-0.05252258995302756,-0.05624886863607623,-0.05622419967216545,-0.05329648309722844,-0.049041427921169355,-0.043987152493328734,-0.04004009756989716,-0.038969956310621875,-0.03978187140971369,-0.04195413846788805,-0.046032794808742714,-0.052050907300441325,-0.058549251797113844,-0.06243300131282952,-0.06156192678880866,-0.05708669216938758,-0.052344010542287656,-0.04844645559463655,-0.04515805347275825,-0.043724119301060016,-0.04483594928501703,-0.04816969378081548,-0.05313658564933232,-0.05841953090632371,-0.06294676088586773,-0.06605338929148602,-0.06695804296651203,-0.06515301795591975,-0.06100987709361198,-0.056071882569967396,-0.051253145425192985,-0.04755809308271743,-0.04687198404275381,-0.04942400798606907,-0.05396763911153415,-0.05981503761371371,-0.06529054104837752,-0.06842216481731014,-0.06840508051136092,-0.06496823729314881,-0.060171279431979544,-0.05600482479520009,-0.051936523257729295,-0.04951790222376954,-0.05159509409422317,-0.056507484327716594,-0.06180652685614945,-0.06735449270908006,-0.07220054257158531,-0.07383232586050788,-0.06921437623987173,-0.05943547790048485,-0.04855537338074701,-0.036748495298136945,-0.024462198883026982,-0.01477960859289025,-0.008810412293753738,-0.006564491721809446,F
213,F,0.5483991471151604,0.521142646553978,0.4996113590683391,0.48487888459596806,0.4742906846454388,0.46440199915509706,0.4502785725525267,0.4286509058913254,0.4013734078666966,0.3708541857107431,0.33893604125700477,0.30734308729705034,0.27702899502549816,0.24993433202222237,0.22548976038785823,0.2001698160921936,0.173766570566096,0.14822255049475563,0.12313015247614365,0.09742272711015562,0.07255730382809134,0.048637086880455954,0.0214789639387525,-0.009620096508756887,-0.040424282307004095,-0.06747027301043444,-0.0883558552247996,-0.10185849771971336,-0.10898240333203466,-0.11173754074419162,-0.10969510101595553,-0.10367028900517891,-0.10038411797607974,-0.10368028772355567,-0.11151886353526388,-0.1224118332494882,-0.13525703316993354,-0.14545512090592272,-0.14732081175495504,-0.1406653379325939,-0.1276325820953611,-0.10936074985413838,-0.08687864553911517,-0.05890096587093306,-0.02584392009999449,0.008840495627110676,0.04398728268337445,0.0777895708066236,0.10536982043921951,0.12398612275548707,0.13690381338030885,0.15093784512053338,0.1697525467316756,0.18970802183464017,0.2030258370150825,0.20372920780588394,0.18796545017710597,0.15399015445903258,0.104816112297685,0.04757045507177565,-0.008935782908890607,-0.05732297953805057,-0.0958844213897646,-0.12523039418075266,-0.14575066063258318,-0.15992942343928204,-0.1682679579491359,-0.16967809377602788,-0.16766115798600767,-0.16703200539286683,-0.16966649471728326,-0.1769824026566087,-0.18803942625754833,-0.19678880036600732,-0.19736466195354382,-0.1895194533860199,-0.17742404519706906,-0.1659140151055383,-0.15926929834797496,-0.16357698137055066,-0.1834799703761135,-0.21678371459949003,-0.25373352245866765,-0.28139913084962165,-0.2915912096064597,-0.28145239959550306,-0.24718838411204674,-0.18309358009300303,-0.08510516838935361,0.05138415949217842,0.23313462079340974,0.46733371023621695,0.7551784891707995,1.0847620606295676,1.4357591739975801,1.7855268880675497,2.1083550969850324,2.3773295030839576,2.5702743014822382,2.6713855066394436,2.671851455375629,2.5749750440297268,2.393746786541157,2.143984539379365,1.8437231783972536,1.5123425977124925,1.1697519532510068,0.8319719181845457,0.5086838538010431,0.21086755432760373,-0.04355563882354494,-0.23570655443136032,-0.3590217105796616,-0.4231233292109887,-0.4463055128362282,-0.44982115356085306,-0.4534940901298913,-0.4671929751981599,-0.4895492904418869,-0.5149204764801247,-0.5379950846471733,-0.5546379143255624,-0.5626556035240503,-0.5650954048268977,-0.5676166485135686,-0.5738972340961758,-0.586516826631878,-0.6069758037838545,-0.631849458023959,-0.6531076369557649,-0.665866747111138,-0.6705768352626318,-0.6693545351140072,-0.6656378318747092,-0.661865504415578,-0.65838077803689,-0.6567168265751949,-0.6577879439046274,-0.6605987902134447,-0.6634714215257451,-0.6647351851562824,-0.6654325079033142,-0.6681287652434608,-0.6729000149029973,-0.6783977452880904,-0.6838029028669922,-0.6871760940711471,-0.6849365480583129,-0.6770854467588502,-0.667206994807262,-0.6572480710324311,-0.6490505145164812,-0.6437906174297028,-0.640894901899399,-0.6365841965094752,-0.6259260302385233,-0.6100102603332949,-0.5917817616308204,-0.5723277627651517,-0.5517343417744104,-0.529155363027073,-0.5051633253266694,-0.47918593566930523,-0.4490573696701084,-0.41635153816230697,-0.3846069741469442,-0.3550771877227084,-0.32872390584767824,-0.30496537850691374,-0.2812203467063403,-0.2559041750495814,-0.22718365646300953,-0.19455159684791287,-0.1604397468413935,-0.12509841310950282,-0.08679551565001162,-0.046486599663135564,-0.006558827054014043,0.03130877094079568,0.06683201236718019,0.10089562163979153,0.13423688677912374,0.1670184954506057,0.19895444093790457,0.22908296173459447,0.25802313786646724,0.28544481493453655,0.30779689133118254,0.32455756602821406,0.33581226366682426,0.3403096320831772,0.33849668259874127,0.3308600256810318,0.32232913609419855,0.32012451583265616,0.32335753149138935,0.32534667797351735,0.3224319572427898,0.31612072402783187,0.3082432685162809,0.2983728348591443,0.28449545234409135,0.26544642196429774,0.244015201231272,0.22311066485861003,0.20403062387286677,0.188489240265326,0.1759464825653564,0.16318423884472968,0.14981595691041497,0.1369782500973257,0.12219546035400945,0.10245818722435612,0.07587694709500564,0.04321213446910787,0.00947898989851649,-0.0231605979910803,-0.0557053201020571,-0.08606254451635192,-0.1114202650889867,-0.130053233485274,-0.1419742286883673,-0.14894294522020057,-0.15283441174550932,-0.15711369674436276,-0.1615210975680161,-0.16086247673474136,-0.15499372413422283,-0.14669726213183984,-0.13683586697475927,-0.1280472002376928,-0.12279923275914628,-0.12332226099539731,-0.13135371632775106,-0.14447962113922286,-0.15624509791366187,-0.1591159430130769,-0.14960638765882583,-0.12754671940874152,-0.09595035903758868,-0.060370748651379584,-0.024226666584657428,0.01152113188503787,0.046606718645440665,0.08024246310273285,0.1125073453827528,0.1423968283191438,0.16703053981581992,0.1854148089102478,0.1976593741936515,0.20405748846869615,0.20431078356968374,0.19628905481041364,0.17837466960101517,0.15020058920494883,0.11236272875612112,0.06789562394050222,0.02164691768649877,-0.021936552928826677,-0.060332804217716,-0.09296801976811181,-0.12076271031358408,-0.14484370577558994,-0.16642384773578903,-0.18775466230561563,-0.20786587284279567,-0.22079563980386002,-0.22295990610134572,-0.21636238372619643,-0.2041403179879527,-0.1900178250477926,-0.17822129021181157,-0.1717798750261912,-0.17189414722778262,-0.17687084609534848,-0.18380597657758369,-0.18830999797530684,-0.18607940711432827,-0.17855648253201714,-0.1710488674696255,F
233,F,-0.04387577021093696,-0.043547732023999405,-0.039691792793436334,-0.03425773475959003,-0.028956384224523332,-0.02359066951895803,-0.0199212310032878,-0.020036664980134598,-0.021966433845556008,-0.02315597839340234,-0.024487329419618245,-0.026952632868483102,-0.030424457337933856,-0.03355538576603642,-0.03271774469975867,-0.028195129959009444,-0.02440557240009486,-0.0223217369448567,-0.020236384387990365,-0.018449846196748037,-0.01950643474976097,-0.023160681124409898,-0.02618415121790673,-0.026860871978462555,-0.026652375104376073,-0.027327165079390113,-0.0273266671478877,-0.024559328053760817,-0.018775448774864225,-0.012375992025281718,-0.008281533042143534,-0.007204963534178726,-0.00921768130984862,-0.013805828417328952,-0.019465897731635144,-0.024531751973775943,-0.02686854948418896,-0.025208123631586716,-0.020161292096674128,-0.012688349065920593,-0.0038497930821554277,0.0063690397416848385,0.018063879278789934,0.0294760355068173,0.03962837329515237,0.04956601732231827,0.059157627518548625,0.06799652849389454,0.07910048650575205,0.09525484327259359,0.11416757257307583,0.1316904646249688,0.14860522323721037,0.16822211929440542,0.19094258134620934,0.21658394493368444,0.24423432391715366,0.26952343813247087,0.28620805378171776,0.29030438311862256,0.2839884362385313,0.27328737691147503,0.262770867267871,0.25512650728136194,0.25327490837023936,0.2576425036726779,0.2644869913239513,0.2699884408252114,0.2712639312249891,0.26811944693458656,0.26189207988346486,0.2534869161978661,0.24609964453010796,0.24270582546341843,0.24739723651960385,0.26458088839830396,0.2934001381545197,0.33107998829670415,0.3757675110004145,0.42607681747165477,0.4820061028536553,0.5459381598825753,0.6204911749852902,0.7025338945056334,0.7807175102554786,0.8365928805797174,0.8461724275553153,0.7871869764376374,0.6446821697099423,0.4113180747534652,0.09567467293799296,-0.272993575279947,-0.6528801084173619,-1.002946412090015,-1.299860951768621,-1.541733420644742,-1.7355531261667467,-1.8855861981776068,-1.990689278427701,-2.0504361835903975,-2.069801441191576,-2.057039682435554,-2.0221379567198308,-1.974622840768267,-1.9169863441270012,-1.8436341794586784,-1.7485491349839266,-1.6306125421300643,-1.4927301323182223,-1.3421152793576616,-1.186926880221828,-1.030636663235357,-0.8747702075011655,-0.7201169370282935,-0.5683660131321943,-0.42545508155871353,-0.29821044712865996,-0.19269091051273024,-0.11393696685722558,-0.060897193347247164,-0.02761614916050023,-0.007598089597622197,0.006275949570790758,0.019306962373608016,0.03412215575481253,0.050730877066616595,0.06653104130387363,0.07928635448061995,0.087376125903511,0.09153466469883041,0.0944233967869371,0.09769902791284249,0.10331674328243579,0.11205296529599484,0.12411583707949993,0.13830334838626376,0.15206200362627656,0.16450242343258994,0.17469370243405563,0.18193534004254097,0.18621057829430093,0.18817276493040985,0.18865401418899513,0.18931973341613978,0.19297373892643555,0.1997335801401169,0.20812787087679313,0.21795860338602624,0.2291397645068993,0.24062397150294823,0.2505828453574415,0.25798309214140563,0.26277803684548834,0.26587043989935727,0.26881734593372203,0.27404978411539754,0.2837699072175355,0.2966577634651894,0.31185764358673473,0.3293091426528356,0.3476885267055645,0.3673865405351855,0.38779942835986175,0.4068527089638241,0.42439324293700287,0.4400574012858618,0.453988970649409,0.4679563750340049,0.48272275625314237,0.49965056715603295,0.5187572902792408,0.538728133143018,0.5599007670331042,0.580509413456609,0.5973044891075391,0.610030332978007,0.6202179395405745,0.6273632414716056,0.6305400678503836,0.6316913713482336,0.6321322081139648,0.6305690195621486,0.6281124042723835,0.6261357166260835,0.6233353590636797,0.6187256468990753,0.6098584354725017,0.5949176999680441,0.5743066090732101,0.5479504039036144,0.5162439522097705,0.48036405116621,0.4431972322192522,0.40759260576225476,0.3735802658688283,0.3394022732433659,0.305157159523306,0.2728795827321958,0.24211271490294914,0.21156102086604162,0.18108818649480102,0.15060670695486705,0.12001094992402375,0.09110611823640313,0.06601513043620372,0.04382519176782755,0.022886480838001762,0.0025308137776347724,-0.015442566208158223,-0.029370517529663402,-0.04144183330365655,-0.05238279857385236,-0.061022745474134076,-0.06839777007058723,-0.07655515963884918,-0.08513819315110384,-0.09211006806103614,-0.09717635038015726,-0.10054781837579313,-0.1021008911523904,-0.10228527313399946,-0.10247765294385677,-0.10304953379234172,-0.1036594942101812,-0.10398962588892478,-0.10249030732723083,-0.10018645008322308,-0.09947376101800863,-0.09896810000179448,-0.09744198056836081,-0.09587414145233061,-0.09520440479574845,-0.09506300027060909,-0.0934796975124659,-0.09136425636537891,-0.09020702089410529,-0.08923122961041374,-0.08679214651687153,-0.08310347943635651,-0.0804056629445993,-0.07769314530476193,-0.07494886017279742,-0.07313096964364638,-0.07191161038518265,-0.07042414754065893,-0.06557636308538864,-0.058663529259559616,-0.05437758113194278,-0.05243787365605133,-0.051390978470169414,-0.053497830318227815,-0.0584718966936496,-0.06224854215167611,-0.06283266753478156,-0.058728869163385725,-0.0497750835091947,-0.03902550393049985,-0.029123485618389986,-0.021366584585751157,-0.012707682733993034,0.0006113056114096021,0.014959609546004978,0.02751621350915314,0.04008006293713961,0.052443922179008604,0.06323563033017789,0.07285812827561734,0.0848108696208841,0.1024118634416723,0.12537682341255146,0.152609650832764,0.18133866443084268,0.2049343319595793,0.21673754210899676,0.21487000690453945,0.20377105824279193,0.1896496795164919,0.17632427258665545,0.16722251259184662,0.1650635961679262,F
213,F,0.5945165350526675,0.590911544499019,0.5850968811599765,0.5761817916767762,0.5648200501029591,0.5507096187477767,0.5313506564797803,0.5071152620773999,0.4805363461805441,0.4532764633639403,0.42743745626369317,0.405205583119727,0.3875578885862311,0.3750322646720655,0.36413140970356245,0.34859249981485363,0.32652168050748404,0.29991016630824024,0.27218184897396347,0.24686832002192233,0.22636869375560903,0.21082340548596995,0.19822597835975714,0.18485560017970565,0.1653658767623869,0.13762522030099653,0.10506140465711447,0.07131939203272439,0.038105570400192315,0.0075374108576490885,-0.018198737060521785,-0.03814090696658022,-0.052798178194416436,-0.06354485640972042,-0.07269568437795662,-0.08030084686267804,-0.08418488015648892,-0.0852702547302317,-0.08528762712622354,-0.08612717137992026,-0.08931547445587655,-0.09219109487466802,-0.08983084777466355,-0.07821196837307776,-0.056072830174686325,-0.02392111210428549,0.01456033034767295,0.05363436151595502,0.09104438294530878,0.12623655554918103,0.15791157760224755,0.185010444184262,0.20688439517464358,0.22177774107684883,0.2264503212754857,0.21865284139837884,0.19937731408833886,0.1716278325945286,0.1377597861843148,0.09831941091703057,0.053480728427619424,0.005195081092093386,-0.04428612422243983,-0.0926473068835422,-0.1356838806851056,-0.16801167515623183,-0.1868689960730435,-0.1939622161512924,-0.1937918099502269,-0.19216716831241668,-0.19173131032027627,-0.19203016730559158,-0.1931757012606816,-0.1939238096938823,-0.1917005612415513,-0.18660764051895062,-0.18150248552187692,-0.17922123788905947,-0.18179509976855154,-0.18903324392161813,-0.1963623628808718,-0.19826381864395332,-0.19398230715800296,-0.1869315189454271,-0.18235465923444366,-0.18340923513130064,-0.18862604701334196,-0.1947735796234828,-0.19532042556146903,-0.17831168634424893,-0.13103478174895763,-0.03906486530403466,0.11502987838201861,0.34227977190165193,0.6419107720197533,1.0027314536353673,1.4003401192590619,1.7889605630327043,2.1046018088569314,2.285045787321681,2.293244536503313,2.132385695766831,1.8393540834214805,1.4665213874935503,1.0686925489263919,0.690966369099421,0.35800728982872354,0.07538183443400708,-0.15800057463629624,-0.3386669673947447,-0.4588491799141996,-0.5144322283627785,-0.5137703724852397,-0.4782257059914863,-0.43183723613379155,-0.3951083138509916,-0.38103853562616563,-0.3912820925177156,-0.4184551322399223,-0.45238698143156997,-0.48417783299740647,-0.5072355188450799,-0.5191228254786181,-0.5226538630855214,-0.5240869466493732,-0.5279971783827634,-0.5358503280003347,-0.5471557533396052,-0.5590799062218513,-0.5682367083080883,-0.5710381159752294,-0.5669012065891019,-0.5618097211462109,-0.5609609503443678,-0.5638091967050334,-0.5686619118270992,-0.5733580997613295,-0.5755780532202359,-0.5760434770741415,-0.576069895978377,-0.5745812674855777,-0.5702786658754898,-0.5646387919207098,-0.558050606156822,-0.5471064481081097,-0.5309672606650794,-0.5127133234049693,-0.49573812975962783,-0.48340405170956635,-0.47666327999207636,-0.4727975523394077,-0.46830543708626526,-0.459163133680108,-0.44167942919307845,-0.4166278428663423,-0.3888511903436573,-0.3620274179865665,-0.3375445706875836,-0.31458940611359887,-0.29151928405931254,-0.26859160828884115,-0.24515253625320188,-0.22012909562549804,-0.195206831286965,-0.17012695836057878,-0.14147924694235675,-0.1090663815859238,-0.0747454388926908,-0.038865532046553686,-0.0015496954201504633,0.036200996324668396,0.07272259890857641,0.10638702257678676,0.13632904094827197,0.16276856599771783,0.1881868668829838,0.21726684515721267,0.2525349833996703,0.2933319458802729,0.33830689393900576,0.38334710873549327,0.4223598991720107,0.45252728289471156,0.4740967149847397,0.4885637211952325,0.49984712405773274,0.5103356326378392,0.5197511657049334,0.5279446613399237,0.5337731363815026,0.536210115011942,0.5355478650984249,0.5326221015456047,0.5274593494790661,0.5192979953510451,0.506994505686164,0.49013444562475805,0.46971228021375855,0.44690464419295284,0.4219871529558372,0.396562824298343,0.37482477925522817,0.35781096541016566,0.34221194079459655,0.326814021789114,0.3115454172966589,0.29440547109293114,0.27592212125436827,0.25755815662998816,0.23884287227245285,0.21901306056775716,0.1964137433554451,0.17121771165558142,0.144557798870012,0.11539937016612795,0.0857584924947176,0.06027969856079181,0.03883595268910606,0.01743538175311226,-0.005872189002925301,-0.031523078534142664,-0.0597866376606911,-0.08695523049971021,-0.10845603888248846,-0.12228735045385397,-0.12744240651188765,-0.12613173002678918,-0.12351172789895845,-0.12269575209759769,-0.12418839081114147,-0.12829265453278285,-0.1343431900237745,-0.13817240985609944,-0.13586690856006856,-0.12872907046795018,-0.11726627775793942,-0.10159052972904206,-0.08251235312011318,-0.05916420785441147,-0.033344561176671283,-0.005908855493010748,0.02456603476875953,0.05686922198609611,0.08821141786346341,0.11705389673885276,0.1429010536377992,0.16389853264875354,0.1793930533239284,0.19142730232099883,0.20232568677759324,0.21250194209397766,0.21877378807583778,0.21587901743296933,0.19937072766892217,0.168149470968793,0.12359931799022575,0.07067870065726095,0.017803825625029822,-0.02959277465734822,-0.06981039881525866,-0.10152905882916256,-0.12578373079544553,-0.14476645764289425,-0.15651381719838128,-0.15939153253142146,-0.1568384833077253,-0.15102627455836612,-0.14356278328482966,-0.13876764757247315,-0.14003556164755304,-0.14647680301160348,-0.1532222618140242,-0.15663808406741198,-0.15548670801906428,-0.1499530234030647,-0.14178990177533665,-0.13368741914150387,-0.1283744898491797,-0.12674597181891195,-0.1285670105185387,F
213,F,0.6366563868530875,0.616080114688834,0.5969545914768506,0.5772268965857028,0.5543330265492966,0.5272022708186652,0.49642136357088745,0.4626876217146399,0.4283645504450369,0.39833831366925554,0.37582333174897553,0.35986763998476373,0.3466155178263282,0.33130047613093627,0.31052662640598655,0.2826132314041119,0.24928895828281572,0.214038378469047,0.17881498823565287,0.14658536795240779,0.11863988243713156,0.09460478544830149,0.07617025074503171,0.06339618514504257,0.0537554318394838,0.046176859932800185,0.04120835664253647,0.03843310018764185,0.036141944291034026,0.03300419538652986,0.030036099694829343,0.026375150173356683,0.018601711884744746,0.008099722784308084,-0.0008692749060710686,-0.003843275203027855,0.003330826456610616,0.020729230541813134,0.04642089425513002,0.07695739414934373,0.10666850098460202,0.13224505116370555,0.15415399043808084,0.1739888940355707,0.1927070695210371,0.2113814589278464,0.23003342352955755,0.24764838141657056,0.2633865990942673,0.2749163659682877,0.281603983859108,0.2850195765953157,0.28615161480006446,0.28316912139048755,0.2699811159536852,0.24149564515234384,0.19665017563428913,0.1375774486502093,0.0702810965110958,0.005342254986803654,-0.04681777156412614,-0.08180581686169242,-0.10081259462999317,-0.10752695998983959,-0.10701653347436135,-0.10569381014673405,-0.1083204532415097,-0.11471795964921258,-0.1216372221857385,-0.12623243994970534,-0.1258319685985242,-0.12086157067778863,-0.11618448104959149,-0.11487696949139758,-0.11662850666665588,-0.12151786376882343,-0.12906989448066142,-0.13587125692791774,-0.13891504344992428,-0.13926521135824965,-0.14088327950421878,-0.1487195517705862,-0.16657708806784477,-0.1940727150272972,-0.2273395352416822,-0.2589982433874267,-0.2773749246111565,-0.2703808961189498,-0.22705690872729534,-0.13598717400464108,0.014633349200609574,0.23120443786364767,0.5107003601471822,0.8422962163426684,1.204864664252578,1.5694301862939655,1.9034876647662116,2.1725439894864635,2.3491432814302975,2.4193919422586934,2.3830729784876743,2.2544759726720742,2.0585651975315864,1.8224855597348397,1.5697934043625257,1.3178970831948913,1.0776973116456856,0.8511229628641286,0.6296483530324853,0.4046863628483657,0.18094814738661608,-0.022851626647883698,-0.18538947954449192,-0.29408679280498556,-0.3512849478387884,-0.37306532233402345,-0.3797856534665046,-0.3869677166256681,-0.4004219905616927,-0.41880832651035615,-0.4396163324383545,-0.46020446253822045,-0.4767256123121249,-0.48813475904695275,-0.4973759379862084,-0.5066621288173297,-0.5172055351386348,-0.5311757609042842,-0.5493857231238024,-0.5679100037492516,-0.5820310272629483,-0.5895620044645754,-0.5911357966716466,-0.5907023357588257,-0.592605575132877,-0.5979654746955798,-0.6055589879951391,-0.6128676798356977,-0.6151010026815236,-0.6094676127953358,-0.5980045971720491,-0.5871703032492488,-0.5828752306926004,-0.5840767953523041,-0.5869847663533478,-0.5881097831239176,-0.582523068616441,-0.5690244630425515,-0.5512087317607747,-0.5322538784268788,-0.5164174103073922,-0.5073616321961064,-0.5029952410929641,-0.4998590825049854,-0.4954304033195649,-0.48613832209346053,-0.47058526702699915,-0.45146328578885775,-0.4316424522883296,-0.41140463543229233,-0.3906766538931482,-0.3699790480808125,-0.35083690138379,-0.33195556291818884,-0.30820330391802375,-0.2796412551768511,-0.2505679058957493,-0.22285183938860786,-0.19338330158788622,-0.15765987831312295,-0.11730203529924194,-0.07529974073078619,-0.03334188662324079,0.004842221620317853,0.03758184522124296,0.06595816362223758,0.09163758275019177,0.11717589180669406,0.14501213302140442,0.17838079219615277,0.21882932429470683,0.2634131751976199,0.3063970030995281,0.3407702048565736,0.36579481703515465,0.38642278799548735,0.4051292977237523,0.4238587663146514,0.44354325751302476,0.4618193494241086,0.4761929289751494,0.48609617561626384,0.4924399408021499,0.49631956254874166,0.49887112391267036,0.5001548407779852,0.4981971957575138,0.49045347281793944,0.4758261956167083,0.45681743462066093,0.4374778555134264,0.4195591276557228,0.4028881445552337,0.3862370366554036,0.36836837237408593,0.3480677550033748,0.3251996981524881,0.3016073843777102,0.27854386204003534,0.2566542516010335,0.2354796436560767,0.21209234999602705,0.18281424811374516,0.14635503516055653,0.10581417950180753,0.06810640567507249,0.03734329012158402,0.012039839657129417,-0.009016312195347785,-0.027717127838359897,-0.04812131246212621,-0.07361576906177263,-0.10555858022054201,-0.14032553739707324,-0.172487350027958,-0.19958180608509618,-0.2191695840026356,-0.2299287108041495,-0.23463362168407792,-0.2373118180075401,-0.2413867288677451,-0.2473454575519527,-0.2511115851817024,-0.24887839780859636,-0.24215443563741326,-0.2359352062304228,-0.2335879998616367,-0.23447602636797077,-0.23446266011451639,-0.23069761776618303,-0.2243999561826355,-0.21478181551598313,-0.19742389985964892,-0.17185516739280254,-0.14218841339649302,-0.1123168880676858,-0.08294860823597035,-0.05317032399161683,-0.024756275109769313,0.0014594994197791172,0.027940461141135506,0.0563535309039287,0.08485852881666284,0.10967391270356261,0.12913550327650822,0.14238567209677297,0.14869740223419745,0.14891165374899828,0.1430833370506949,0.12951941900877026,0.10746764797170737,0.07652558308317486,0.03532028099378334,-0.013539423796134237,-0.06442313357625531,-0.11228686934739189,-0.15171687860460914,-0.18070812085931456,-0.20209961624950162,-0.21877061381675894,-0.23188412488251328,-0.24079577624351678,-0.24355112234790383,-0.23936778738426223,-0.23002993465774024,-0.21827694276039605,-0.20392866027969297,-0.18374441034119443,-0.15389975071762663,-0.11200433315926776,F
208,Q,0.0015950971308617279,-0.016770341581306678,-0.03208436506732856,-0.04434884458493603,-0.05417971708322347,-0.06329079427694019,-0.07483637491416739,-0.09086685595196783,-0.1129360393267488,-0.13930223147164594,-0.16657186070673718,-0.19808388490528672,-0.23949938352297476,-0.29320252679461944,-0.3571584434716254,-0.4263242079685324,-0.49470789979012586,-0.5546705739069544,-0.6029731575322269,-0.6442549046342031,-0.6846294140865218,-0.7274460786407699,-0.7729073873991248,-0.8222458727912461,-0.8807010979300622,-0.9515878912579081,-1.0268396039266752,-1.0907082022182273,-1.1314920323884234,-1.1413715040347148,-1.1223155939369085,-1.089640441814197,-1.0569230462373438,-1.0245729784352668,-0.9751312498001535,-0.8786333460752944,-0.7182872616961636,-0.514456724643118,-0.31757513964957046,-0.1744649634335047,-0.09784628471556889,-0.061276849476519846,-0.0276028632889586,-0.0021478426633931846,-0.03891305228218228,-0.15441325778819315,-0.2733267190220757,-0.28782954353574075,-0.14261849270680507,0.11814143432814256,0.3693312320169961,0.5154833626948372,0.5875275663519162,0.6877137448793421,0.8670243409843716,1.0798456816082946,1.226467365175445,1.231416279828824,1.0916140400077654,0.8578735356820797,0.5914620538085604,0.35000174751922764,0.16949933196432693,0.04343982573635101,-0.054185447260757136,-0.14008385441536841,-0.21268777407494588,-0.25091592789985273,-0.22472072761457762,-0.10863450729926596,0.09906689179955297,0.3556015447683156,0.583229070469633,0.7156174646319137,0.7441413331691826,0.7130979150076933,0.676159017546812,0.6652273339235061,0.6863902382537659,0.731745151057219,0.7892623009207695,0.8483939067155619,0.9008180445546415,0.9439386428738039,0.9858753570296793,1.0377777275101177,1.10249263311163,1.1697652088943025,1.2192228692723197,1.2324856183093926,1.2128755855078721,1.1930552164514854,1.2074557804629042,1.2550415965461243,1.307540052734909,1.3464954440077908,1.3738730338146985,1.396516386824643,1.4184636529565844,1.4471383258211639,1.48109671314381,1.495824305015464,1.459625152320783,1.356928635522694,1.1931282160917838,0.9827497756086607,0.7478237670415515,0.517138950765696,0.314733347304985,0.1496727754849832,0.014150143072089269,-0.0985243803147161,-0.1841017756359262,-0.2411306587535538,-0.27986088203816195,-0.3122123921972307,-0.3410489857791077,-0.36644964141602643,-0.3887840916086921,-0.4059868732628471,-0.41896652989790617,-0.4323193142598821,-0.4488986655325603,-0.46803894009850144,-0.4860357728702731,-0.49926102555232266,-0.5083428564942196,-0.5176540044555384,-0.531715824743523,-0.5507141519605147,-0.5686344618689297,-0.5795847575552715,-0.5852199991168555,-0.5910180249268815,-0.6005379780031196,-0.6131946275778789,-0.6237973550046886,-0.6285165477423561,-0.6268954654870191,-0.6224956938203549,-0.6216789316048652,-0.6275563244947853,-0.6384158273671171,-0.6473799994190155,-0.6490555970793659,-0.6473509481300356,-0.649504924633952,-0.6557008056476983,-0.6602154138185664,-0.6589770938034516,-0.6533976971410155,-0.6494732455087312,-0.6514456487569877,-0.6560944671505494,-0.656233652037354,-0.6511390567626618,-0.6459787199787849,-0.6428129938479074,-0.6392005674113495,-0.6333135728587191,-0.6245099331268321,-0.6108184284092174,-0.5944239899147301,-0.5803722669030073,-0.5684792543710563,-0.5551975699576652,-0.5368568462063747,-0.5118023734412624,-0.48210967742231053,-0.4511986443480451,-0.4225055848035625,-0.39716321530630205,-0.37087327445324575,-0.34057733785705385,-0.3110980293102836,-0.2858689769196696,-0.26360751455666603,-0.2443427088536444,-0.22441421832058073,-0.19761411799987133,-0.16538038676633224,-0.13591972449578354,-0.11558982365851223,-0.10385219846424575,-0.09586505388182076,-0.08872563539632691,-0.08421244496253452,-0.0841544076206405,-0.08583954321592703,-0.08591185452759048,-0.0817512784232162,-0.07343271940068571,-0.06780556008279456,-0.07081675500600743,-0.08113394904409137,-0.09211232565178779,-0.0966170858806913,-0.09347056245103232,-0.08753051184476139,-0.08346125282440206,-0.08236803687793451,-0.0826668373650751,-0.08185345690874377,-0.07955878201316846,-0.07826352139351286,-0.0812296771131365,-0.09004154006084032,-0.09881635266081196,-0.09862133662146666,-0.09054706162005421,-0.082545120864813,-0.07859803122317587,-0.07783257902598022,-0.07584324376540123,-0.06725677126245193,-0.053565959126943355,-0.0422944623134994,-0.037840532943860306,-0.037902401564104266,-0.03568800500216239,-0.027637503928164164,-0.01866342982495965,-0.01596522336695165,-0.020622690258699977,-0.02744060550293552,-0.030911983734720497,-0.028925782835382968,-0.022110946558400082,-0.014331337750402101,-0.009695500892038855,-0.009758983391520662,-0.013743341368680953,-0.014908469950210612,-0.009320832820634006,-0.0018044793096921447,0.0023243431668194953,0.0011149083272335852,-0.002537701847486834,-0.0036402740851110976,0.000786434610987527,0.009026225312802491,0.01532715523609196,0.015426597368136882,0.008222710126234267,-0.001072100174369997,-0.0038655328430896585,0.002493727689044406,0.014791896076249492,0.025441627237163686,0.027567936044942884,0.021659735313185838,0.012939104757228315,0.006424306464295773,0.0028377069607629646,-0.0018305879806996134,-0.008421331804033802,-0.013257130927520247,-0.015299717854679554,-0.015332812408823865,-0.012558249322817239,-0.005978195836686573,0.005384619694081064,0.022250265128834656,0.04162707228503332,0.05847726726327028,0.07180319168860945,0.08285628076744947,0.09009029062175875,0.09397461131941476,0.10037833821781603,0.1111163008486944,0.11834088232118689,0.11746391421965158,0.11359737607656265,0.10949391590120841,0.10369236246204389,0.09640399565170575,0.08666388911123267,0.07157222944668998,0.05205419617577273,Q
203,Q,-0.6588004130305923,-0.6558787210735788,-0.659058358277939,-0.6601683554130847,-0.6574089158776333,-0.6529303119157159,-0.6474891800114551,-0.6420491498756812,-0.6375342211153381,-0.6305306409888258,-0.6176370458192241,-0.5998245049093615,-0.5832012964352358,-0.5757789466514001,-0.5797050563273991,-0.5869228662143791,-0.5848934782591383,-0.5668322786357435,-0.5354171260787515,-0.49886575266431504,-0.4653419040568916,-0.44033456874877724,-0.42695810672284623,-0.4243836536804651,-0.42819294531841107,-0.4349431380361381,-0.44247322241094234,-0.44719838964447806,-0.4443045240255509,-0.43099605869803403,-0.412337441303899,-0.3992078388858126,-0.3927393493884753,-0.3821932379092842,-0.36063377895426135,-0.33153333383136846,-0.3014547086852103,-0.2771754905425043,-0.2670017397753775,-0.27122285391670387,-0.27831956107963707,-0.279017941519501,-0.28009959518034244,-0.2946606845241612,-0.32326768764922637,-0.35440215295634026,-0.3724833598789589,-0.37174063363946575,-0.3637332126512644,-0.356291891137757,-0.3456091193658447,-0.33334555824276424,-0.3239169187719873,-0.31691282013801547,-0.3168253220894671,-0.33055292074173154,-0.355741445973198,-0.38295142694426265,-0.40431148325604527,-0.4183798528487557,-0.4280036982459107,-0.4355226140351588,-0.44259849415725033,-0.45051744349733175,-0.45617575196791316,-0.45667317814584585,-0.4560766095511981,-0.4575636926610881,-0.4608974196070364,-0.46424973426148763,-0.46376821707594856,-0.46059586253792895,-0.4597601771538415,-0.4630727868784811,-0.46854458976410074,-0.4738460631705142,-0.47949961671708446,-0.4852699354387333,-0.4879683364919364,-0.4859793365501616,-0.4769844534791746,-0.45211799036025224,-0.4040688896974667,-0.3384168222902493,-0.26495884541377246,-0.18431446564161044,-0.09645825901828403,-0.01678619572648385,0.02382735345643963,-0.00506195685014349,-0.11420402332406271,-0.2950691132847332,-0.5342371242406334,-0.8118739943775034,-1.099178732175686,-1.3789258911882056,-1.6560177470363082,-1.931171163783571,-2.1703067568829315,-2.3149083715249974,-2.324418758759518,-2.198597250857128,-1.9682841044753505,-1.6694173208345058,-1.3260919512783549,-0.9645096915916141,-0.6225581366202662,-0.3324019396994363,-0.10460081479637426,0.0645697509293896,0.17995315325581884,0.2523166157136854,0.2987742307568096,0.3291094414654577,0.3444233437720304,0.3470447759553079,0.343366608221939,0.337819160514882,0.3303254177325632,0.3222712675642787,0.3196064490960355,0.32948525420471003,0.35282914903056456,0.38304094095544006,0.4138791505343862,0.438566082685974,0.4514892421978169,0.45584523260519566,0.46313857171656597,0.4841409269338564,0.5172634510446263,0.5513257953295665,0.5758546439153812,0.5869130325723595,0.589026887037043,0.591709452335906,0.6008642343874089,0.6163937370101729,0.6381526671321301,0.6648275769069801,0.6908920135055037,0.71130274530502,0.7265761909386916,0.7391731041609615,0.748398006539982,0.7528664862457464,0.7554459435701417,0.7604857808145766,0.7722136459452884,0.7930357345625818,0.8183935218066949,0.8442320130216481,0.8718486126274061,0.9038868143887794,0.9403837093438229,0.9747768419780688,0.9967796874229599,1.0033833044850353,1.002518215793665,1.0052220535350798,1.0162318083406605,1.0276595917655917,1.0288675908565117,1.020210029106616,1.0092914485447175,1.0018737710529657,1.00238973811272,1.0134104253311098,1.0286222313329376,1.0389149698897908,1.0423000233519097,1.0403350331660173,1.0363338911154671,1.034958760215442,1.0358373874118159,1.0342754070600702,1.0286189689063392,1.0239791027819587,1.0262022718764299,1.0293838888686504,1.0202685816442871,0.9949587581799033,0.9618793045858931,0.9333310773301149,0.919089143873896,0.9190187057771266,0.9209597791357015,0.9162875774382325,0.9061930529386631,0.8935744254275814,0.8812976097460328,0.8714364660534735,0.8618797351177242,0.8486909844938246,0.8340681780570174,0.8270686251092625,0.831639029913581,0.8396701189767031,0.8406978280768889,0.832766928537667,0.8218978058199995,0.8137573320279512,0.8100772033891288,0.808006666654312,0.8028953766326741,0.7956908408437071,0.7886587710945481,0.7831457171587375,0.784659198508109,0.7931298583118043,0.7988364830196663,0.79485910430387,0.783695456569922,0.7742008677990512,0.7724744284288765,0.7766071217215977,0.7812105317480578,0.7832281574184696,0.7825457235799158,0.7808960709579026,0.7802072363452659,0.7790939995865318,0.7747833727273197,0.766963557466523,0.7575389136473527,0.7501185052686637,0.7488357286511049,0.7525549224691668,0.7539779890102412,0.7489787306985884,0.7403921183092219,0.7322043192463631,0.7266587915785347,0.7240116318529536,0.7217283206431755,0.7175153061513069,0.7105309812205871,0.7027339894607776,0.6984144256783539,0.6965135885560617,0.6907964187651264,0.67901743114508,0.6651748021190148,0.6536108707645549,0.6474038527297303,0.6457648876505812,0.6444228873190119,0.6423152460718533,0.6397468606819005,0.6376250534919643,0.6381735508694847,0.6406516074540748,0.6407712051653026,0.6383792670162991,0.6393473796816062,0.6471252550839924,0.6594241811482552,0.6714413374217274,0.6781109833030216,0.6781589770179866,0.6761151932448339,0.6768315875046429,0.6822639424058029,0.6910003356004855,0.6981550783438216,0.6995650918823965,0.6955498016498503,0.6901572705260091,0.688318701995826,0.6906825822754172,0.6911097384569038,0.6828992002024666,0.6675874400966177,0.6521373557833325,0.6403460266653106,0.6308075561475515,0.6168128280847871,0.5911226412282492,0.5583647297669884,0.5306355066874144,Q
203,Q,0.5908076019393518,0.5857787264098256,0.5822358037099105,0.5814670593242248,0.5798712715844181,0.5731601913277463,0.5620306683835223,0.5527133040646522,0.548808906872215,0.5460812984543653,0.5391756303211728,0.5284616156273066,0.5183146652341082,0.5105080237052586,0.5035983085279718,0.49782092685037005,0.4942706293781337,0.4917428244240227,0.4877962717205063,0.48185804408093064,0.476783195484469,0.4760758886301474,0.4776008212239592,0.4739135239101093,0.4644949195400488,0.4563482603272099,0.4544331839547959,0.4565223979976479,0.4544647621480595,0.44586385286887564,0.4352079939954821,0.4253409322816322,0.41869468492936396,0.41819841774410166,0.42053760232869697,0.41857180860750887,0.41079316954142864,0.40215037998433617,0.39889674903389066,0.4014494452649935,0.4017026588232553,0.3937367197606446,0.383232021816803,0.37786733522614036,0.3772803009667525,0.3768030081838912,0.3728353662956747,0.36503823595838814,0.356066866083948,0.3496400251556249,0.3474357485422783,0.3473966609435879,0.34613183578606077,0.3422795345687306,0.3374461256003092,0.3314396222996452,0.3251341843593679,0.3221633013423335,0.3207228809501643,0.31617242173294946,0.30844016269832353,0.3009618312213792,0.29534347556976914,0.2926254591796475,0.2930962171424271,0.292499026127316,0.286723723776053,0.278623959147962,0.2752372047911317,0.2772405723698354,0.27747356830437503,0.2703807949266521,0.25869721901415466,0.2505748953358236,0.2519260421566263,0.2590139074867911,0.2615433502045083,0.256672662700479,0.2497929961915086,0.24570400429389644,0.24736490456634616,0.25219235886773544,0.25304322003613655,0.24867578352477593,0.24377792797967918,0.24159960194741298,0.24248964197235698,0.24618050938005595,0.25057267371429,0.2530978585310731,0.25472870722944085,0.2577285924870582,0.2624067769083218,0.2683666117662253,0.274193188906736,0.2763398171311323,0.2743780102785103,0.2726704103212817,0.2747574104508828,0.2801121148681667,0.2837256834573778,0.2802070327878696,0.269592084009468,0.25837732333749924,0.25357556555929617,0.25315764564663407,0.2484766344807121,0.23555650832158836,0.2169897847542369,0.1989525416329761,0.18701876334376308,0.1804958887212244,0.17389085903627102,0.16565501331812432,0.1589762835547641,0.15323187013327216,0.1465139248297347,0.14015942940062276,0.13477705876102944,0.12972136115069538,0.12459545875496034,0.12094928850430806,0.12249422457752275,0.12797235468308166,0.13117182610523878,0.12810041338700318,0.1188699150164072,0.10878938092669128,0.10550691817235112,0.10894603500169951,0.11024058762969985,0.10385582585227822,0.09428983916762097,0.09056701714175328,0.0942418837187083,0.099617240710422,0.10132274248259172,0.09813018838448247,0.09399731395743195,0.09113085874951389,0.08971277295060452,0.0910587828548215,0.09362820024914463,0.09181173240423156,0.08458436393438924,0.07871938057841125,0.07904136670524749,0.08418157668153001,0.0875112416402594,0.0839871578048766,0.07924988003001353,0.07798025401971731,0.07652639313944483,0.07410183088237132,0.07317195507283658,0.07335311307232113,0.07111083885150729,0.06602489223398639,0.06347402402010446,0.06680695740467826,0.0709313674630813,0.06835818891427359,0.059390767524755694,0.052363672298243666,0.05411903022123481,0.060313670725792384,0.06205291441866195,0.057988996530189865,0.05225555083220368,0.04766911638779084,0.044930111777129564,0.04618940283443136,0.05071014392170624,0.05127276002281245,0.044576089467682684,0.03668086672242414,0.034712261478415704,0.03738975563305741,0.03904524506486598,0.037224565878020394,0.03477694685157098,0.036066216440803336,0.04035330952746416,0.04422998247995408,0.04396257790674529,0.03958996259710376,0.03495412191958608,0.030672237295669896,0.026632691684696758,0.025927845553161924,0.028241421189238933,0.026584481098115245,0.019888318581658668,0.015179018107978254,0.017024223805691893,0.02409137608574466,0.028099231467698188,0.024388679643123856,0.017302751851026157,0.01154268449674746,0.009836485648959642,0.011065180768434699,0.012397828933783231,0.011084580149540946,0.006313522826495541,0.002592331264437378,0.004249165741493491,0.009792277852200562,0.011741383640834532,0.006823634806454343,0.00043420959379560087,-0.0021848725057422025,0.001144142360808037,0.007227890119859429,0.010014765667819489,0.00789452429924059,0.002431279391712962,-0.002415990202840751,-0.0022038513634285856,0.002445947685660671,0.005357316051255445,0.000996494402647513,-0.006815660155777892,-0.010943139428175,-0.010396385364021404,-0.007543356458114797,-0.005952185570501242,-0.007168034989999489,-0.010923741504868148,-0.014929555012295814,-0.014076568407194026,-0.007473017721614961,-0.0007579983868876983,-0.0004875228564509837,-0.006226710953272305,-0.011212753614668988,-0.011105170618637042,-0.008611353503158892,-0.009586077793021064,-0.014571745120726023,-0.018219965802401622,-0.017144469696830145,-0.01429235844794087,-0.013222105085477442,-0.013867729189483605,-0.016507275693774318,-0.02097644066781648,-0.024528983052111805,-0.02369621522522096,-0.017588340754069023,-0.012219877634826293,-0.015191041153626753,-0.023575955023854983,-0.02865615168760921,-0.028157489933508043,-0.026470862093108727,-0.028055870861184107,-0.031903717091289696,-0.035768848798932606,-0.03942747792722645,-0.04249111747473912,-0.04309563808062386,-0.0414599105048056,-0.0400579600378838,-0.03953497804906675,-0.04022008131638294,-0.04037511049443833,-0.0368372852779008,-0.031576661633880176,-0.031236095117732093,-0.037281502015674844,-0.0431348404932706,-0.042064630951022725,-0.03596085444357494,-0.03280160398977122,-0.03584370965617781,-0.041159781651012486,-0.042588865510043136,-0.03794498294077901,-0.031317588124159815,Q
105,Q,-0.09040284360907952,-0.10608128782765285,-0.11775337652482884,-0.12471400605626334,-0.13158978257147186,-0.14293275561894814,-0.1607707416212153,-0.184191798368336,-0.21365105775580195,-0.25032224673468717,-0.2899836900069632,-0.3257251783004168,-0.35356489977271977,-0.37433999407727353,-0.3913481736351911,-0.40992559347127555,-0.43561342035875594,-0.46947035224765626,-0.5089039211979645,-0.5496491238477936,-0.5884410294236722,-0.6254690127812498,-0.6625131547629348,-0.6993169687054506,-0.7353934580726866,-0.7686345995731405,-0.7976709620036758,-0.825817655233689,-0.8526247291431635,-0.8725163437269507,-0.8794481326392094,-0.8701913153152045,-0.8478225654759254,-0.8201247813300931,-0.7926454829548246,-0.7650223044820238,-0.7327097889590998,-0.6904406292661157,-0.6381345415426001,-0.5808377471605135,-0.5196302164234216,-0.4494636568474718,-0.36624957938623653,-0.268672550294662,-0.1611808250132383,-0.05749202761538069,0.03272998202523014,0.11234705601987746,0.18693165888319022,0.26010019214166125,0.33233314083600296,0.3983332687980124,0.45290440724801606,0.49489998565547755,0.5273226572038883,0.5586788697365774,0.5935878340391053,0.6253577531544662,0.6468002833866742,0.6606545433585707,0.6757102390505054,0.6986457213055577,0.7302353824828658,0.7689727002496125,0.8139033559730574,0.8648771008628436,0.9224267405558564,0.9841638005821685,1.0459110826293625,1.1034378763067072,1.1531479905439908,1.1952774047446928,1.233071731633249,1.2713166829325595,1.313065207961693,1.3560064678367416,1.3966756987487434,1.4327510929849359,1.4632347795538192,1.4906807531880935,1.5191819516925351,1.5495479355041162,1.578934930516328,1.603632046918514,1.6211653732230817,1.6343806118863862,1.6486553817210647,1.663063083943937,1.6736633468437117,1.685477317979326,1.7114118884053116,1.7623115904849345,1.8414175738084666,1.9418889308930092,2.05046152302753,2.1550978418117936,2.2485759902088813,2.3268217748390074,2.384692488622601,2.417956575347624,2.424986318255583,2.404470105591369,2.356390266781467,2.2850256941247,2.202321183376858,2.1161825444131264,2.0196151499412416,1.9033178819472067,1.7734987058140983,1.6537506969465638,1.5624132566575046,1.4908248753175652,1.419631418226201,1.3467825693192437,1.2819029178761387,1.2277363848838292,1.179293765705682,1.1319919222818786,1.087096841650774,1.0487022639064976,1.0148921968318667,0.9812613492915501,0.946497192099866,0.9093392948769946,0.8685949619738703,0.8252184673896555,0.782059279042649,0.7420862133224921,0.7067054710883155,0.6738541978497905,0.6414051876875397,0.6085106414372216,0.5759422872205886,0.548710739901681,0.5279485777488964,0.5077827584079282,0.48378146024986407,0.4544940968789378,0.42031159827205217,0.38478087909285175,0.3533771205719692,0.33278808193769666,0.3241165642269397,0.32073406432291646,0.3161325163629595,0.3088552134761497,0.3003459802504831,0.28703980672084906,0.26559932115258816,0.2413458931864193,0.22139157481845476,0.20716984073539296,0.19556459406088336,0.18047984922441468,0.15809536396462548,0.13290780460203608,0.11222408744287571,0.0998505633234581,0.09406348130488373,0.08926887627163745,0.08165279165370283,0.07321658592580536,0.07033669745938913,0.07672074634380846,0.09029412993450694,0.1035776315013711,0.10684816766755602,0.09656979763653369,0.07763708831960757,0.05818073894837954,0.04591462957714873,0.04516005829668043,0.05220556248273503,0.0584175275254864,0.06153886442794915,0.06491798154499279,0.07009208144784097,0.07699123298088983,0.0828779505414587,0.08521850100826067,0.08571965236851323,0.08865605262721159,0.09719763166807664,0.10786265562006551,0.11380848869326246,0.11150858040606695,0.10099289070677907,0.0878817645383635,0.08077272305671229,0.0819239299206217,0.0870210409666218,0.09082862916290672,0.09111163897031335,0.08989200317122556,0.09001393977967673,0.09336133965534908,0.10032971223598174,0.10712189487695795,0.1067805954411887,0.09577541814945215,0.07424065671618663,0.042061314924410176,0.003809383330254046,-0.029667385738371604,-0.051805355317460916,-0.06520990074009546,-0.07465803081816885,-0.08382020504497747,-0.0931220028953948,-0.09907328681151426,-0.10157262570618278,-0.10382712385139065,-0.1088449091159111,-0.1197914164354271,-0.13544385585099403,-0.15123868249751654,-0.16472606088704117,-0.17364151766004468,-0.17512864878680098,-0.1725370643273025,-0.17504229405928376,-0.18677317229694024,-0.20503455870958312,-0.22522181767740615,-0.24322755157848203,-0.25823940573303017,-0.27310491851046537,-0.2915454258140944,-0.3130421770713312,-0.3294118246939749,-0.3334431959720344,-0.32729414473677376,-0.3171533866901622,-0.30906401158525154,-0.30764791723213,-0.311701860368058,-0.3162661579957499,-0.3177682232885054,-0.3142268589399301,-0.3046985757843699,-0.28954062310693574,-0.27169772352072286,-0.25700956266582553,-0.2507655204753283,-0.2518161027300688,-0.2516689898635676,-0.2448941704142626,-0.23490279827642224,-0.2295957128073037,-0.23451384992471086,-0.24513683327275063,-0.24935683135677938,-0.24006406097006192,-0.22060892444035402,-0.1993978119716514,-0.18344183672695247,-0.17382321374950274,-0.16654766909306074,-0.1594534274124266,-0.15553633404174794,-0.15827165932619433,-0.16932304266153672,-0.18884607647484059,-0.21259478378338248,-0.23360535996314188,-0.24375161368093182,-0.23840641509446844,-0.22486172078717467,-0.2149996678549627,-0.2155449331215988,-0.22833045495371126,-0.2477191063309359,-0.26320355869632134,-0.2702351605211543,-0.2716698084825091,-0.271973686314813,-0.2726962150510308,-0.2716788498885343,-0.266382243596914,-0.25590884984449497,Q
101,Q,0.12293402069463505,0.12729140015689533,0.1290835664983666,0.12851949852972713,0.12595654141367604,0.12419173647161072,0.12764725765210763,0.13278353724528888,0.13335500652511656,0.1315774800611438,0.13283580690449123,0.1378594427595878,0.14329625605704727,0.1451054718520312,0.14140881339480504,0.13704317305347177,0.13932553113832163,0.14873351531790263,0.15928102194331645,0.1648640613687723,0.16551378753670587,0.16541049820979195,0.16712663903746233,0.1696303098433738,0.1684784105022062,0.16237176527317831,0.15715849496873027,0.15837432973756474,0.1645421789896117,0.17103538450508501,0.1754831247497427,0.17590481204891395,0.1721668669121242,0.1698979212989559,0.1738613849233904,0.1806472232786515,0.18503465434516853,0.18593517932753303,0.18553595345614918,0.18800519007597585,0.19372572314383654,0.1995960397962301,0.20563559043185642,0.211984483283453,0.21599809355729885,0.2182067016593361,0.22172734957138884,0.2266753322316448,0.2312597635002412,0.23439464327001336,0.2358492619023515,0.23807665826022026,0.24412308764150656,0.2539939822923785,0.26666800727233064,0.2802980082851038,0.29377224755219183,0.30684399389662426,0.3169213286680026,0.3200424281905614,0.31378852843598737,0.2994011359487864,0.280748989262547,0.2603370507502842,0.23524792159067687,0.19384283273417646,0.11565236537210462,-0.02864358513514723,-0.2771610846020788,-0.6464853824216026,-1.0823885133576232,-1.466392352651745,-1.7084708732962994,-1.8219365651310135,-1.875603981489165,-1.9122353024889103,-1.9379557464161687,-1.952197176411769,-1.960315563527365,-1.967752998131644,-1.9752729171021535,-1.9765450169547374,-1.9702509058474202,-1.966082366579992,-1.9682446438146624,-1.9707244561381303,-1.966630153482072,-1.950810334632537,-1.9178115011321653,-1.8565835350618605,-1.7437984626580887,-1.542587826931164,-1.2237982242484198,-0.8264896816617284,-0.47360909280996183,-0.26470981892701817,-0.18544192023105782,-0.1606008219534016,-0.14371843193659722,-0.1297557745086776,-0.12601272839133612,-0.13777033121101487,-0.16641528400157768,-0.20952509514014467,-0.26700108293318986,-0.35304900541977774,-0.493280441028407,-0.6956078789900833,-0.9242983770479118,-1.116072252149923,-1.225787359840481,-1.264283266943364,-1.2928310809272765,-1.3577608096394507,-1.4475074556450531,-1.5257217902137066,-1.571013158084459,-1.5812225962005866,-1.5616706780949936,-1.5032106465862471,-1.3679980461280696,-1.1129902546834596,-0.7485593882262538,-0.377825791159166,-0.12704668612749437,-0.02787240634006556,-0.017135346835296314,-0.02586137220046482,-0.025514474462552797,-0.014591811788665199,0.0016551238353805925,0.01713911815088119,0.029192945121266037,0.038480171756082204,0.045496131714912416,0.05196211851419495,0.06016897984880716,0.06975359125239376,0.07640758168578915,0.07652785010234905,0.07141704229164697,0.06730329387429593,0.07018961022105483,0.07751082677616097,0.08214581728685087,0.08189083381850039,0.08074070246954539,0.08298596787785174,0.08854782455805384,0.0939210579856921,0.09745668018547744,0.10007444548069395,0.09995574681598764,0.09613809989343305,0.09177825585743737,0.08960039014088862,0.08800908504325154,0.08385462343291096,0.0790008323954206,0.07676627116917874,0.0785048642601956,0.08567629455373603,0.09496379009411193,0.09968459179905728,0.09860296698962774,0.09596280617257956,0.09578076572061982,0.09897597657940874,0.10409316365292305,0.10816769753309723,0.10941831200699598,0.10986579408326708,0.11189731896916728,0.11511908391079634,0.11805652496865322,0.11799911181012401,0.11288802878190782,0.1067320073489665,0.10472079425616773,0.10826274517650816,0.11508786616775218,0.1174617195348728,0.1121813644504943,0.10509091959526301,0.10261359550115587,0.10675466959457501,0.1126589326421672,0.11383641186329047,0.11012218669069998,0.1075465671479195,0.11101859073953341,0.11914254975043788,0.1271400494395086,0.13314099448137262,0.13972706893233106,0.14993196854001392,0.1635972076688324,0.1772467956162559,0.18637711615332625,0.1889485044140947,0.18880541086907357,0.1936753846703986,0.20717745600739473,0.223628390276254,0.23563163370044002,0.2423283150408581,0.24771571482308474,0.25575098618916203,0.2674335485408581,0.2815908583239849,0.29596536334074197,0.3094578536235005,0.32126178079791956,0.3292227981396477,0.3351786939804154,0.34539965706373,0.3614497281120487,0.3773963178590428,0.3872028184828718,0.39103430681873647,0.39337664161012564,0.3975196626008426,0.4021147790801084,0.40413405447551587,0.4035233111841883,0.4011492208017588,0.3974710186456015,0.39189686633560805,0.382318464765405,0.36847814113571764,0.3527718092406098,0.33911953216545465,0.33102513552489377,0.32729806535100925,0.32011216952450416,0.30291998355241234,0.2793732147468694,0.2601662446630687,0.2533597509919354,0.2546422041877803,0.2529840044773558,0.24507692701986705,0.23373662565246978,0.22107256565783576,0.2081381525897082,0.19576027021876619,0.1841855437156964,0.1732751412701522,0.16440643518391052,0.15954714420945276,0.16179887168817952,0.17180705327015766,0.18223811877462048,0.1850753677887069,0.18038754001161517,0.1733674769055173,0.16535173757489577,0.1538674689762835,0.13973316074535364,0.12669821376255963,0.11635294948601813,0.1113907393328938,0.11471236765226656,0.12065259472093517,0.12057373588493774,0.11315612609850387,0.10436498477781059,0.10108801573849491,0.10248359881632152,0.10333918753905849,0.10303639663405575,0.10305428587135865,0.1031075990619628,0.10192742346514692,0.09827305490485036,0.09196613256148911,0.08576070602794222,0.08449508305476916,0.09186309897044395,0.10728976637948799,Q
208,Q,0.004703045553087731,-0.0496109927627065,-0.13958010635204582,-0.22605160967296944,-0.2751530531622953,-0.283902507020766,-0.2748442757097963,-0.2645357061419161,-0.2554672343509833,-0.24907821306200648,-0.2489000213416474,-0.25830930566456567,-0.2751438592491021,-0.29000096035602313,-0.2949201975665292,-0.29219604754923456,-0.29115730048414795,-0.29741502774740525,-0.3082313242800081,-0.317400485959317,-0.3224270806923821,-0.3265824639924425,-0.3354476575373462,-0.3502479653467821,-0.36680624256784483,-0.3813014055826798,-0.39128155545224746,-0.39875948938625105,-0.40878036424446607,-0.419319283427141,-0.421697783302449,-0.40782668758573215,-0.3779130822139415,-0.34263426397514923,-0.3114381591866761,-0.2808819753213305,-0.2439865655188163,-0.1988187569269806,-0.1429524523475517,-0.0775932524666486,-0.010540592683406694,0.05174324054878129,0.10708548184263213,0.15387945106512105,0.18579674768013416,0.1868055807252279,0.13463736231727683,0.021460321887538367,-0.12011615559647096,-0.2285676316600908,-0.2675608071306044,-0.2556568876586056,-0.24372383846787005,-0.2735449961586906,-0.34536181395547594,-0.41906703524337635,-0.45501238666366073,-0.45216200856569455,-0.4442600243478505,-0.4620531066240936,-0.5052161364699318,-0.5541562716582161,-0.5907788537585706,-0.6043503376347179,-0.5860668381297237,-0.5221269996127786,-0.4120225220352822,-0.2862337079779854,-0.18800275439607025,-0.14102626814138744,-0.13192135829787172,-0.12583193513558208,-0.10232699411350299,-0.07450511574942284,-0.07115873901445877,-0.10716361198964656,-0.1720653565150839,-0.23893880484907967,-0.2823992262803482,-0.2827491361988772,-0.2265602560369503,-0.11018018243769453,0.06112739384760234,0.2740597057752811,0.5108696304095635,0.7504663774389647,0.9688942807655585,1.14660325318046,1.2791865666451356,1.3698825112395003,1.4150274003905277,1.4102132872183664,1.3528477573637372,1.2300638980009322,1.0216671399664237,0.7264686281942903,0.38347471126957366,0.06640998796476862,-0.1577628139436296,-0.2756443481716787,-0.3248836011277466,-0.34941417868484337,-0.3646645863916155,-0.36768460492588184,-0.3659807948898318,-0.38141178492794253,-0.431202334002021,-0.5133513584216083,-0.6090748255537173,-0.698175056458494,-0.7793275023615261,-0.8700381896680375,-0.9862384370731179,-1.128680746167125,-1.2875438700629582,-1.4517835964197323,-1.6054593977293414,-1.7212137468661706,-1.7588411181369654,-1.6788784567016073,-1.4658303800515202,-1.1380952586540274,-0.7483819708876087,-0.36891357423822274,-0.04876879839891114,0.21482287699828756,0.44446812539073555,0.6219823853404554,0.6700488346208848,0.5029437128005911,0.12392499716582075,-0.35510763414980095,-0.7964178769203254,-1.0325698775945735,-0.9578015985071147,-0.7010993085745902,-0.5035467663755451,-0.46778401889660487,-0.4819772686047179,-0.3931589353581856,-0.1954421757140125,0.0007370032410021071,0.0958061191618364,0.08050485893198364,0.02457344470773827,-4.517693007819942e-05,0.030859349075783398,0.10276253995104138,0.18213377912421977,0.23427580019317684,0.2432611057307285,0.22150982768334798,0.18739789210382052,0.1375019072823938,0.05998929448360026,-0.037499671428219236,-0.12987682093195133,-0.19808082079023345,-0.24121243574748719,-0.26878724614728655,-0.28912262087612106,-0.3028134752289619,-0.2991787161760832,-0.2629334509004901,-0.19131145326618976,-0.10093687879889572,-0.018795704562939344,0.03572606373933128,0.060712703737813484,0.06417772889257108,0.052275355208065206,0.029116590803321542,0.0040245549021796535,-0.012185176785611769,-0.013770265945350378,-0.007603889258874372,-0.01355657357484262,-0.04696167821381014,-0.1065563143955567,-0.172480623128377,-0.21879194317275674,-0.23626926180547492,-0.23420159130826343,-0.22457797787979616,-0.21141817147526143,-0.19293060591548292,-0.16914946434411257,-0.14497796891878184,-0.12902197993962744,-0.12930611537160966,-0.14953715584167535,-0.18498470170204254,-0.22277868045286714,-0.2508783790841108,-0.2626684109414098,-0.2607981557632123,-0.25423996830915724,-0.24625159399492524,-0.23593446535250273,-0.22355775253982782,-0.21077077289144114,-0.20190133263953608,-0.19932070089095863,-0.1982741520571879,-0.19017600255829853,-0.17193634299550403,-0.15157126114952515,-0.13742411772065538,-0.12965459079019448,-0.12639566517597836,-0.1232903614564416,-0.11609465382585644,-0.10738956300191649,-0.10057153172083205,-0.09649457202341119,-0.09414256868139967,-0.08882504557069965,-0.07652781522695867,-0.05779079037482162,-0.038133518655245134,-0.02435810760744994,-0.01784091506197334,-0.014611152716935527,-0.011273076452734308,-0.008365135128325131,-0.0057583924844099785,-0.002555270980396457,0.0006011959683484489,0.0060466707073106515,0.017917609355327983,0.035354394219399246,0.05182430420126514,0.06103681754863659,0.06204444043762643,0.05849670885020778,0.053470684138695594,0.047871671116982276,0.039135602651875705,0.02222740149228684,-0.002258758324366464,-0.028636019506943403,-0.05069500957267285,-0.06485773202930914,-0.07540191039185438,-0.08978487502130768,-0.10943360762564013,-0.12885633085105505,-0.14036645416126595,-0.14311028918576732,-0.14540994795659445,-0.15321898457980465,-0.16375020996027934,-0.17132307907382616,-0.17294477804663533,-0.17098061450487,-0.1719995344137304,-0.17988127063034268,-0.19283810090139636,-0.20502314044635578,-0.21198041283205968,-0.21618415844829447,-0.22194939767351637,-0.2307857831588848,-0.24258492845647547,-0.25452950430638116,-0.2628963435251719,-0.2681672074683908,-0.2723920384134257,-0.2717556597713233,-0.25257091734663445,-0.19558682510126005,-0.0889866790285742,0.06783889366390203,0.2677799197168763,0.49442396176847037,0.7232025765846779,0.9151144475169515,1.0121596493202736,0.9640631286120225,0.77314246903907,Q
105,Q,-1.1749668792099381,-1.2277783366296633,-1.2750830808037266,-1.3132826794162122,-1.3415864600512246,-1.3613870752123085,-1.3753442134238512,-1.386460577398167,-1.3944128467869132,-1.392281376570267,-1.3711566081469364,-1.3282059869657803,-1.2744976294024706,-1.230644587508065,-1.2078473114220014,-1.200626841033513,-1.1975919713103043,-1.1905693427098254,-1.1731988036660024,-1.1379402873318796,-1.0791886217713937,-0.996906618890476,-0.8965994920378946,-0.7866155583199588,-0.6766797434877833,-0.5744954710543673,-0.48377141218905995,-0.4071456000999217,-0.34525128402359173,-0.2952097576736765,-0.2523897860957436,-0.21279768442930125,-0.1739583645390473,-0.13498074522093975,-0.09485406080340877,-0.0516550991850522,-0.0020427428124505723,0.05734756662863913,0.12350200314107351,0.18867389483660058,0.24735108833802347,0.2979457765165557,0.34355181318550876,0.38935017585268794,0.43663134275055027,0.4817975261707983,0.5165444678155059,0.5313762053895578,0.5262235827275862,0.5144092355605211,0.5120225491933721,0.5234412370903433,0.5417603287040924,0.5604454697450696,0.5772367245441437,0.5913643677757514,0.6019371879965697,0.6072404611525961,0.6043913444075852,0.5910908458088839,0.5668305567544375,0.5334985836674313,0.49787157570057694,0.46991264233820057,0.45553565756369363,0.4512088297078545,0.44720751473771203,0.43604509909794836,0.4136188667212101,0.38000328751827206,0.3415201680621759,0.3026482675976553,0.26351879877693263,0.22404140847842635,0.18383554161825882,0.14494875658410394,0.11145995542464016,0.08666033013233918,0.07262949657099194,0.06885790150908329,0.07486205978277809,0.09281965833381514,0.1242570317817135,0.16320821139625227,0.19453459205001994,0.20211410264170215,0.18228761207759298,0.1490203478655827,0.11875791705818872,0.09522439681620974,0.07637439148045697,0.0688666126857469,0.08626810619762706,0.13761656146608797,0.2204583234979377,0.317909736841541,0.40949100789150994,0.4861655243716844,0.5482501531737646,0.5946038517305599,0.6136854511088543,0.5845217732347955,0.4973941725298069,0.38137221440707836,0.2910061414901016,0.2527627535384981,0.23760944013247526,0.19848055322114042,0.13074316764370342,0.07659530795380734,0.07484698850663873,0.12411623651861865,0.18978260309798242,0.23303162087378584,0.23559359524891205,0.20647426378320416,0.17295843835764413,0.15986424295892335,0.1688671691004062,0.18484445524357127,0.1991547973817384,0.2118846970647221,0.21784449746951262,0.20650504852531812,0.17482041806154952,0.13086275541737225,0.08610375389418151,0.050371404450360896,0.02651872953502331,0.008650255997304483,-0.008443517092004554,-0.021322510213508422,-0.02021498091315843,0.0005795629082201575,0.035114080615512286,0.06714446323160711,0.08046448740822598,0.07128089210638211,0.04824351327376239,0.025179822436009754,0.012878332817980375,0.012501487728921547,0.019516199604640502,0.03218851899723012,0.0512241257472094,0.07730747549890622,0.11364925132359928,0.16248019245577416,0.21976824992597882,0.28008403937863086,0.34137151926889325,0.4023215884660023,0.4593281834425492,0.5066627078745395,0.5410093293742091,0.5608635140850713,0.5643411362244946,0.5517152584578359,0.5236205806915202,0.4815535672864035,0.4300565979751202,0.37426374490491643,0.31791264171723543,0.26427832172593213,0.21674314939945574,0.17744086225096725,0.14592297898726966,0.1198135040716928,0.09796703255069855,0.08157941880552295,0.0711096369420315,0.06664189449977567,0.06694745572500992,0.06751315741356567,0.06603646982741262,0.06463431246336296,0.06748827009408147,0.0760938178603788,0.08641635746095969,0.0937571802119005,0.09709684707628083,0.0982927061395005,0.09650435427936306,0.087532391921965,0.06956046221972073,0.042731909718841284,0.009263677877134547,-0.02480787676318768,-0.055931789594665555,-0.08426702679049564,-0.110790361664476,-0.13906813960642136,-0.17102480939633316,-0.20443485575647075,-0.23720040170710477,-0.26971897659075167,-0.3011738944257536,-0.3268795482624863,-0.3426337760275959,-0.34945092659899313,-0.3553639734425182,-0.3686778283117388,-0.3904315733741944,-0.4132049454173843,-0.4263351124832241,-0.42662300152762267,-0.4198359907274566,-0.4121792194949511,-0.4051269814242948,-0.3955779941956804,-0.3814566097381212,-0.3651058374199544,-0.3521163028203933,-0.34768494261940375,-0.34864344169666206,-0.3459913021630396,-0.33389610321688323,-0.3141508473597655,-0.29457008547261804,-0.28106797205966955,-0.27326661194447205,-0.2662097635596969,-0.254504743650908,-0.23712600375625847,-0.2176141125884222,-0.19882167373234672,-0.1791282941963847,-0.15619234861349413,-0.1301353845576599,-0.10464426236126932,-0.0878631885849387,-0.08473148068652545,-0.09282988510713557,-0.1055028743090462,-0.11466267757994693,-0.11347131703868935,-0.10201627336071752,-0.09039462446003646,-0.08856599434510257,-0.09609737326726733,-0.10081749011760303,-0.08632719855014617,-0.04723972392307134,0.00601064681698334,0.05302827487031187,0.0715288995851303,0.051967563882469314,0.005104354342398164,-0.05063577453470228,-0.10381192731845339,-0.14900352566472286,-0.18455261050874883,-0.21125664924344856,-0.22696322296415689,-0.22990038430387463,-0.2253222720049305,-0.2216018751245887,-0.2207373194667575,-0.21590376537836875,-0.1991501970076332,-0.17223078371348605,-0.14798598578075337,-0.13732937122011463,-0.1367284814186757,-0.13145688703534097,-0.11114566443057372,-0.08072270391176395,-0.05222993787848509,-0.031182150810655684,-0.016887087745099484,-0.007932633841673763,-0.0010767551825974983,0.006277146099765592,0.011087063643556504,0.0062990095280075365,-0.01264190938195979,-0.041323861972852094,-0.07294698942981416,-0.10603799970064233,-0.14429418657080476,Q
203,Q,-0.03590166351629192,-0.03440089744831443,-0.03274409482141124,-0.034464412596730706,-0.04072444130222268,-0.047210421773720826,-0.04676857033009304,-0.04086293876963082,-0.03871709532890619,-0.04346426959292678,-0.04958709198424899,-0.05063757796639147,-0.04622488338903943,-0.039697589596020384,-0.034747928246531605,-0.03530173893356755,-0.04157179387927723,-0.04821499728876437,-0.04816906009088423,-0.04217217134238003,-0.03833867650445852,-0.03944672941711113,-0.042108948882239365,-0.043153116002171324,-0.04114664816521929,-0.036274558010066446,-0.031490214097059474,-0.030818828985668484,-0.03548895329604537,-0.041883814991487606,-0.04271592443587119,-0.03737466942473838,-0.03245095629034328,-0.03084152590657735,-0.03201805461293962,-0.034626847224994615,-0.03542377067323862,-0.032752314609505916,-0.030265715788706356,-0.031760595249063564,-0.036123388665050236,-0.03946941874130552,-0.037111830517660774,-0.029924893747082827,-0.025031964698084906,-0.026333892161681714,-0.03154775774398197,-0.03443107442314649,-0.0319312698293361,-0.027814436253492975,-0.026582663779008885,-0.02897558634389512,-0.03255235107865274,-0.034796576980611074,-0.03415165896373945,-0.0308061597119239,-0.02985743844464423,-0.035271304571267405,-0.04094113679706731,-0.04095948404066846,-0.038036183223813275,-0.03557946683025339,-0.03434702392206965,-0.03505241092537595,-0.03792142488385621,-0.041864620513899185,-0.04362003134413662,-0.039206956463486535,-0.032855075368183946,-0.0332967791003174,-0.04053599933717657,-0.045851273934053804,-0.043025300105082244,-0.03651930471979474,-0.033927120821370685,-0.03486352896974535,-0.03468167628070035,-0.032878160674854884,-0.029681760186374632,-0.024223372009025704,-0.01787278370667507,-0.013306507416499351,-0.012593549111207206,-0.01480312286428763,-0.014267337955236437,-0.006172761944565064,0.005165456153211845,0.01195394335327421,0.013875475045996621,0.017838980258902487,0.030348841934059498,0.048550720738440495,0.06301057872386687,0.07039310233022153,0.07485712700994235,0.08027117482468142,0.08823125726223652,0.09730600660345476,0.10291515812658315,0.10277127177416849,0.0960848635012899,0.08394838355917014,0.07220625853562461,0.06499775507560593,0.05896847857388139,0.04766738189036809,0.02953795146218339,0.00970959850878958,-0.0030013058995033426,-0.006240448768473586,-0.008293052209829427,-0.015505381560247063,-0.024211372987586514,-0.026893701018093664,-0.022350410242735805,-0.015754213190564317,-0.012671501616628153,-0.014396285655053874,-0.016958263050268832,-0.018049956530702203,-0.017221352023359074,-0.012510550261901524,-0.006940974662378127,-0.008890123902424954,-0.01958422773119104,-0.029037436128251264,-0.028296584698832887,-0.020488322242694187,-0.016243424742346864,-0.018943991667651656,-0.022359110183780312,-0.021823922034499052,-0.017604986581992714,-0.011089703910368676,-0.004873007970251003,-0.002789126449557894,-0.005892910869796625,-0.009269529737422837,-0.00821843006732352,-0.004605861198782646,-0.002302694130665764,-0.003194417140284622,-0.006654489929308685,-0.01005644988909557,-0.009722618933801538,-0.005066111737710918,-0.001144376738006131,0.0004277077157053971,0.0012121948018040396,0.00014132405151673355,-0.0002870059035282174,0.0029306009265876315,0.006620205309469912,0.0059688590869461655,0.0027988450718173102,0.003986122076528639,0.009783684328809314,0.015025605555484087,0.017123448523029633,0.017044776133787673,0.016053910447500444,0.013691377361826448,0.011432807118347418,0.011839844499617946,0.014545132225966997,0.01495819429841537,0.010704602683300452,0.008803638883883302,0.015109557567842491,0.024846301672300827,0.030910602000311954,0.03134905451730184,0.02782093927062003,0.02388835807195181,0.02379854730075799,0.029795071681608873,0.038857509036776226,0.043340058618902375,0.04003199499391526,0.03567205457163173,0.038179087144829454,0.044790883312809,0.04692646548059875,0.04554652435722645,0.04688368889321452,0.051264726919300105,0.05738786025775081,0.06431358309624238,0.0687149811740291,0.06829039593146251,0.06397268575918905,0.05965808018562475,0.061251410404109814,0.06925092573849922,0.07612494125318531,0.07646721662448396,0.07279407572863078,0.07048849188566922,0.07198446322171537,0.07466173586115805,0.0758198388495743,0.07457369551408088,0.07115723455273956,0.06911766705120025,0.07207591699571718,0.07953987766602569,0.08450691110927196,0.08102023721739927,0.07254828684201606,0.06767807775363194,0.07179520760915964,0.08127036882909386,0.08964952696354055,0.09463670671789809,0.09528207479984134,0.09324452586231494,0.09409674452968039,0.09964856973562691,0.10434539541321738,0.1029588093039265,0.09752883157425957,0.09494862620200245,0.09932185821074521,0.10614561046684737,0.1088183312399803,0.10651180993426027,0.10150927137786075,0.09698148117897125,0.0964663549299434,0.10162722534547983,0.1085360676172751,0.10960828200961403,0.10472159144149283,0.1031299356871724,0.10863236659848441,0.11552641504045272,0.11718748462250786,0.11392269310464831,0.11120222697463819,0.11089706400966098,0.11375617816103917,0.1199957990075588,0.12544902660741036,0.12532277668564062,0.11947229725462616,0.11429745608600336,0.1167221935858806,0.12456591649076448,0.12985320862327,0.12761504261192402,0.11901472683207735,0.11326833529154373,0.11780944579172514,0.12705135613597424,0.13105761532348348,0.12782574346791387,0.12472681047191386,0.12621323795715117,0.13028628614968452,0.1369742937505148,0.14332931728748138,0.14412271738021964,0.14079727528637248,0.138581902102856,0.14055478699008897,0.1470499993743055,0.1529049475478578,0.1524441274921659,0.14707462866799914,0.14237284184967672,0.1454363484089059,0.15639697316374482,0.16450398267933186,0.16278231765935636,0.15661571892623877,0.15592142422214575,0.16285114029719275,0.170468658358241,0.17437885902992908,0.17429486393535576,Q
105,Q,-2.6067476618506857,-2.6943009222965983,-2.757805189778003,-2.804194193315636,-2.839830124777052,-2.8664603440143885,-2.88258985065944,-2.890344098026942,-2.894124901958451,-2.8960323556471113,-2.8975167997402176,-2.899514649548628,-2.8981596075224445,-2.8887763666940307,-2.8732583723979856,-2.8525123181581953,-2.821141958385584,-2.7722497384466256,-2.7050782848270516,-2.6304480954890455,-2.565203430473601,-2.5193367821264427,-2.4897832282318237,-2.4670577555551425,-2.4428711650824884,-2.413660932456284,-2.3818102961451624,-2.351494568898619,-2.3269425733217397,-2.310740079264924,-2.297825001145383,-2.2805516375829162,-2.2527271772201405,-2.2057457880127838,-2.134885932323442,-2.0526850922321325,-1.9847366939500777,-1.9446017610231074,-1.9233753464152927,-1.9037899360792903,-1.874774147684371,-1.8297793267554372,-1.7616293377265106,-1.6719538985535751,-1.5724749913268203,-1.4731278239553731,-1.3788274975600951,-1.2933420781918328,-1.2222629458584615,-1.1723836474262097,-1.1469982285532465,-1.1384450766824141,-1.1301215286863602,-1.1095546748725629,-1.075675428586078,-1.0319482489073932,-0.9780429721397284,-0.9115879573037701,-0.8313330170344378,-0.7381801742455816,-0.6358983302323002,-0.5290687982300613,-0.419660396562255,-0.308585058918738,-0.19742720311551384,-0.08869210730541904,0.015231400410646023,0.11521017899061559,0.21403209833376552,0.3175880072161517,0.43547974004065965,0.5744965700498699,0.7318881996552471,0.8952024840674268,1.0535857933466455,1.2083304434796291,1.3658408529865498,1.5255760506891831,1.680619306140244,1.8232824206675695,1.9480932142595995,2.052506874740173,2.1379113116339528,2.2117176160543237,2.2841395262698785,2.3591379043074494,2.430496774683454,2.4889893004708723,2.531195572259695,2.555803323865342,2.553527171764432,2.5058324660887266,2.3884451085790883,2.1753742151071016,1.8425935700981695,1.3963915730937542,0.9034663297405441,0.47307135662564676,0.19726281981234545,0.09469955155572651,0.133380407262409,0.28186050824129233,0.5136575139264086,0.797463762057318,1.0996382545202144,1.3949104863205772,1.6706024026756983,1.9226662047602874,2.150472421106214,2.3492633570942947,2.5084059855872276,2.622110714005813,2.694917385583805,2.737219157877879,2.760368517099105,2.7745500934309817,2.785735886712477,2.791337010152078,2.7882170371218775,2.7802749311606236,2.7724669517063316,2.764655587795038,2.7525069425520314,2.7331273359985735,2.7017824395222028,2.6481738490446105,2.5614050228989056,2.4324678789973038,2.2582171740221875,2.046944751380436,1.815868161133555,1.5835827557599347,1.3676193038695574,1.1841793798148363,1.0448138549698116,0.9534608273746585,0.9065373181447394,0.8931413881781548,0.8985391510457431,0.9096603813428071,0.9168763990258902,0.9144648425264185,0.8981174235457364,0.8675810986850534,0.829475255509782,0.7894352518985046,0.7485076638405361,0.7059863228972966,0.6648897929908173,0.6333337448767428,0.6168472468687496,0.6166941421044924,0.6258429823388529,0.6284605862048197,0.6155972708584433,0.591211745307276,0.5622203084467681,0.5308735927969472,0.49652901815176836,0.4581624554278734,0.41959514250528684,0.39049220645941063,0.37688255956754824,0.3788682852857415,0.3937210420738072,0.4177557913788612,0.4444358180138519,0.4612387565126619,0.4568895631044442,0.42957541099342367,0.3845146767712388,0.3290183813530413,0.26919908718603314,0.209757905418853,0.1556765826870427,0.11011002799137222,0.07586667696456373,0.05862590287569705,0.061357490759169214,0.07861849377139199,0.10332681390227935,0.13023414403219746,0.15179542126880208,0.1612769372614582,0.15650309993841113,0.14115947716350036,0.12166216159041662,0.10416582237195529,0.0933765072419631,0.08921956518135858,0.08577651086321048,0.0756747554312838,0.058358706394765786,0.0376431377660105,0.012654508757068694,-0.02285498142452455,-0.07336020179875588,-0.13704074163550892,-0.20937098048759617,-0.28458106421281837,-0.3561384638798358,-0.4206496559754288,-0.4751858597186321,-0.5179900826688728,-0.5511117515594888,-0.5759858998962364,-0.5945600804615478,-0.609819927846148,-0.6241165647487966,-0.6359899457899227,-0.6400243818199943,-0.6336429933108965,-0.6191004699308787,-0.602242061453494,-0.5880573999123531,-0.5785765668406154,-0.574468106733222,-0.5735554237877891,-0.5741300461990715,-0.5756177373372566,-0.5720962095823433,-0.5566815106833425,-0.5291784735342788,-0.493917976113903,-0.45713541283131626,-0.42383783117478,-0.3937047860362216,-0.363853558960447,-0.3315985221749096,-0.2963604620076489,-0.26323323206974636,-0.23493248332236433,-0.20790373943844304,-0.1825937953783078,-0.16279883478025028,-0.15161702383506387,-0.1538871700132404,-0.1709505355511184,-0.1976855862179026,-0.2315437009610308,-0.273557663313826,-0.3231215846966662,-0.3785166860408468,-0.43756614289738854,-0.498934287902426,-0.561072107811159,-0.6209947498799335,-0.6779598429003858,-0.7348898639007879,-0.793632214861413,-0.8513836680256621,-0.90149654866359,-0.9372909185527654,-0.9558418545486309,-0.960701485515558,-0.9606720781886364,-0.9616545391677185,-0.9622451162580001,-0.9606716041864368,-0.9584244612071111,-0.9553990149446655,-0.9518234143546576,-0.9474332304417732,-0.9372433249899246,-0.9166718882138756,-0.8869821497766992,-0.8552724060833617,-0.8249861183650786,-0.7925924896465564,-0.7518461357923354,-0.6979214011962194,-0.6366844607336626,-0.5802660674658656,-0.5385175685742045,-0.5136987434691347,-0.4972328506471124,-0.477031721365146,-0.44607810595838226,-0.40796213741888177,-0.37267217200109426,Q
203,Q,-0.03567856026529426,-0.038198494433625316,-0.04424187445337022,-0.048176309259442454,-0.0457227104643185,-0.03862919985499633,-0.035041482754280415,-0.03882540065485543,-0.044567888257619676,-0.04738923756335291,-0.0471443667463374,-0.04529326296562683,-0.04504453339191236,-0.047849347917176516,-0.051527893288946566,-0.05458475391462031,-0.05503219329909803,-0.05184139116894411,-0.04815333223844653,-0.04872471224896094,-0.05361960282920361,-0.057254742676566744,-0.055062593354615386,-0.04894341332972141,-0.04675022532604457,-0.05238612596662433,-0.060834465324760834,-0.06627270677368484,-0.06754193526849542,-0.06622968367874116,-0.06289341252013494,-0.05950932333182635,-0.06102730461710648,-0.06619932777040179,-0.0676025706026709,-0.06288569882084546,-0.057944313561641814,-0.05949853145313673,-0.0663090895660185,-0.0702124430563106,-0.06678419533978207,-0.059898689197751584,-0.05472648173694715,-0.05376196675885557,-0.056775952664852344,-0.060635410847298024,-0.061863840017822525,-0.05893135735241821,-0.056076417572212975,-0.05859987505063419,-0.06497454222853401,-0.06966386798190478,-0.06781148884753609,-0.060466009777951094,-0.056411169260516716,-0.05998020729489871,-0.06441440780680151,-0.06463703283127369,-0.0612996638038113,-0.05626940556678901,-0.053092922559234146,-0.054761620362836924,-0.061039872436683365,-0.06727446109022012,-0.0677689194334134,-0.062357441138027686,-0.057279484841542744,-0.058027920705605016,-0.06261487263505729,-0.06603823044039873,-0.06639685381827581,-0.06339467389907545,-0.06011790484387125,-0.061442928604731745,-0.06581193448370501,-0.06802758031030809,-0.06521461517340424,-0.05857801499735603,-0.0523409890075021,-0.05103743974319305,-0.054033589381500866,-0.055029449164009744,-0.05217844352114112,-0.04663459116602327,-0.040445344204067965,-0.039167807274549896,-0.04518518447310617,-0.052546236564958035,-0.05233368709188192,-0.045749875239014914,-0.04003728476986414,-0.03608539301305329,-0.031140967083931048,-0.022672740787449755,-0.010400621154726758,0.003924139491017706,0.01715057335357288,0.024258300278529446,0.023452737687660402,0.02078328483447689,0.024851816170203073,0.03448367894633966,0.03880838421402383,0.032828787214488855,0.02153005389119561,0.008725812651999218,-0.004966243430698111,-0.017617277390768266,-0.02748421835288216,-0.0376681248928353,-0.05151770296652894,-0.06420731501896944,-0.06899044097530571,-0.06596231629360655,-0.06213455740996787,-0.06388555886710887,-0.06991784588134253,-0.07425752298272291,-0.0746200953334192,-0.07262307672978748,-0.0710381931008046,-0.07396194736065137,-0.07998775914437488,-0.08310934312729931,-0.0800559685118869,-0.07274448216588614,-0.06777738043724886,-0.0695766872494123,-0.07481748272121772,-0.0778526173085093,-0.07732548316319844,-0.07409745988410972,-0.07092054059981664,-0.07058228910100607,-0.07307369812567768,-0.07558212423060087,-0.07329358113858314,-0.06666115662975981,-0.06276669364351307,-0.0648114216551063,-0.0696093030932249,-0.07513115535256872,-0.07890793163687497,-0.07709298227571479,-0.07249142513273785,-0.07174172902505911,-0.07646756262795927,-0.08254507009262219,-0.08389377499715157,-0.07975346822928636,-0.07609620455009937,-0.07826399496370323,-0.08512095479872994,-0.08916461360261164,-0.08469418906294413,-0.07438123872665403,-0.06634633358071579,-0.06647727859202632,-0.07200584697433926,-0.07636548574026292,-0.07709090700429556,-0.07588845940020561,-0.07696327808979218,-0.0822870251649116,-0.0871185074056686,-0.08732918557956114,-0.08419546738792726,-0.07836732153869887,-0.07037982370327492,-0.06408972166913941,-0.06367967359293907,-0.06790354310824183,-0.07111621228231284,-0.0688829347460351,-0.06353590767290442,-0.06299398073531896,-0.06890154517029362,-0.07490701930368189,-0.07372646039409661,-0.06447873398042335,-0.056012693347186615,-0.055777974411553716,-0.06061017575856041,-0.06328706487432245,-0.05991237017005514,-0.052880780313491665,-0.04874180835317163,-0.04928180842582526,-0.052929613231810835,-0.056535656108488264,-0.053898964081860276,-0.04495956238325151,-0.037761615727316164,-0.03870129150376797,-0.045498305565178254,-0.049422215881828255,-0.04651493863410131,-0.04050704000574442,-0.036707145342118844,-0.03813812907204274,-0.041885057761216385,-0.042832315652823943,-0.04069464310039458,-0.03778249464157253,-0.035794476063943016,-0.03715387088007978,-0.0418898339863894,-0.044645003189029024,-0.04151628657452893,-0.03602973167691403,-0.033874127665996054,-0.03732608866911344,-0.04302094885057556,-0.04433086336264455,-0.04022124925743315,-0.035441846153751434,-0.03421293487223544,-0.037515377426703383,-0.04185220725187653,-0.04353281486134575,-0.04179964392940484,-0.03622193347440017,-0.03138233443094788,-0.034452087054513546,-0.042741711403536234,-0.04862048159973892,-0.04959386806201528,-0.04634064826338756,-0.042241780372049544,-0.0410151075389271,-0.04159991215242995,-0.0423478948765437,-0.04173653166346186,-0.038176291605797566,-0.034790624304637925,-0.03684809361348172,-0.0438465653228237,-0.04911803436952529,-0.0486533889638527,-0.04498355302142875,-0.043140188328524606,-0.04355860217009817,-0.04342541213712975,-0.04250578857265545,-0.04094855501335828,-0.03839824950375852,-0.03472064952771546,-0.03090241478192883,-0.029827552091835567,-0.031511028123565196,-0.03210553117557215,-0.029920291347143975,-0.029116264558517894,-0.03292901695676021,-0.03716857108867437,-0.037978667750993005,-0.036843306858920934,-0.03471864307600101,-0.030775132174108953,-0.02777551746199633,-0.02922320899584622,-0.03206790778290605,-0.03134131427716567,-0.02830920150423171,-0.027446961622121346,-0.02990991975367264,-0.03343723682596529,-0.03559848614021126,-0.03590166351629192,-0.03440089744831443,-0.03274409482141124,-0.034464412596730706,-0.04072444130222268,-0.047210421773720826,-0.04676857033009304,-0.04086293876963082,-0.03871709532890619,-0.04346426959292678,-0.04958709198424899,-0.05063757796639147,Q
